{
  "aor": 0.0020248749999999998,
  "aqi": 0.006994468500000001,
  "bids_meta": {
    "AcquisitionMatrixPE": 64,
    "AcquisitionNumber": 1,
    "AcquisitionTime": "15:27:5.735000",
    "BandwidthPerPixelPhaseEncode": 31.25,
    "BaseResolution": 64,
    "CoilCombinationMethod": "Sum of Squares",
    "CoilString": "C:HEA;HEP",
    "ConversionSoftware": "dcm2niix",
    "ConversionSoftwareVersion": "v1.0.20211006",
    "DerivedVendorReportedEchoSpacing": 0.0005,
    "DeviceSerialNumber": "35377",
    "DwellTime": 3.4e-06,
    "EchoTime": 0.03,
    "EffectiveEchoSpacing": 0.0005,
    "FlipAngle": 90,
    "ImageOrientationPatientDICOM": [
      0.999361,
      0.000394346,
      0.0357287,
      -0.0034885,
      0.996239,
      0.0865805
    ],
    "ImageOrientationText": "Tra>Cor(5.0)>Sag(2.0)",
    "ImageType": [
      "ORIGINAL",
      "PRIMARY",
      "M",
      "ND",
      "MOSAIC"
    ],
    "ImagingFrequency": 123.256,
    "InPlanePhaseEncodingDirectionDICOM": "COL",
    "InstitutionAddress": "Azinhaga Santa Comba StreetNo,Coimbra,District,PT,3000",
    "InstitutionName": "IBILI",
    "InstitutionalDepartmentName": "Department",
    "MRAcquisitionType": "2D",
    "MagneticFieldStrength": 3,
    "Manufacturer": "Siemens",
    "ManufacturersModelName": "TrioTim",
    "MatrixCoilMode": "SENSE",
    "Modality": "MR",
    "PartialFourier": 1,
    "PatientPosition": "HFS",
    "PercentPhaseFOV": 100,
    "PercentSampling": 100,
    "PhaseEncodingDirection": "j-",
    "PhaseEncodingSteps": 64,
    "PhaseResolution": 1,
    "PixelBandwidth": 2298,
    "ProcedureStepDescription": "Unknown",
    "ProtocolName": "rtfmri_neurofeedback_LocDynamicExpressions",
    "PulseSequenceDetails": "%SiemensSeq%\\ep2d_bold",
    "ReceiveCoilName": "HeadMatrix",
    "ReconMatrixPE": 64,
    "RepetitionTime": 2,
    "SAR": 0.18346,
    "ScanOptions": "FS",
    "ScanningSequence": "EP",
    "SequenceName": "*epfid2d1_64",
    "SequenceVariant": "SK",
    "SeriesDescription": "rtfmri_neurofeedback_LocDynamicExpressions",
    "SeriesNumber": 4,
    "ShimSetting": [
      15856,
      7507,
      21311,
      469,
      413,
      -718,
      219,
      54
    ],
    "SliceThickness": 3,
    "SliceTiming": [
      0,
      1.035,
      0.0625,
      1.095,
      0.1225,
      1.1575,
      0.1825,
      1.2175,
      0.245,
      1.2775,
      0.305,
      1.34,
      0.365,
      1.4,
      0.4275,
      1.46,
      0.4875,
      1.5225,
      0.5475,
      1.5825,
      0.61,
      1.6425,
      0.67,
      1.705,
      0.73,
      1.765,
      0.7925,
      1.825,
      0.8525,
      1.8875,
      0.9125,
      1.9475,
      0.975
    ],
    "SoftwareVersions": "syngo MR B17",
    "SpacingBetweenSlices": 3,
    "StationName": "MRC35377",
    "TaskName": "faceexplocalizer",
    "TotalReadoutTime": 0.0315,
    "TxRefAmp": 384.068,
    "dataset": "ds004141",
    "dcmmeta_affine": [
      [
        -3.997445821762085,
        -0.013953989371657372,
        0.1066804900765419,
        128.3829803466797
      ],
      [
        -0.0015773845370858908,
        3.984955072402954,
        0.2599494755268097,
        -93.36419677734375
      ],
      [
        0.1429147571325302,
        -0.34632188081741333,
        2.986811876296997,
        -53.65754699707031
      ],
      [
        0.0,
        0.0,
        0.0,
        1.0
      ]
    ],
    "dcmmeta_reorient_transform": [
      [
        0.0,
        -1.0,
        0.0,
        63.0
      ],
      [
        1.0,
        0.0,
        0.0,
        0.0
      ],
      [
        0.0,
        0.0,
        1.0,
        0.0
      ],
      [
        0.0,
        0.0,
        0.0,
        1.0
      ]
    ],
    "dcmmeta_shape": [
      64,
      64,
      33,
      160
    ],
    "dcmmeta_slice_dim": 2,
    "dcmmeta_version": 0.6,
    "global": {
      "const": {
        "AccessionNumber": "AMS20150402-0241",
        "AcquisitionMatrix": [
          64,
          0,
          0,
          64
        ],
        "Allergies": "MEDALERGIESL",
        "AngioFlag": "N",
        "BitsAllocated": 16,
        "BitsStored": 12,
        "Columns": 384,
        "EchoNumbers": 1,
        "EchoTime": 30.0,
        "EchoTrainLength": 1,
        "FlipAngle": 90.0,
        "HighBit": 11,
        "ImageOrientationPatient": [
          0.99936144869593,
          0.00039434612034,
          0.03572869087313,
          -0.0034884973087,
          0.99623875283767,
          0.08658046968555
        ],
        "ImagePositionPatient": [
          -764.86256306844,
          -795.5331546311,
          -153.75368677392
        ],
        "ImageType": [
          "ORIGINAL",
          "PRIMARY",
          "M",
          "ND",
          "MOSAIC"
        ],
        "ImagedNucleus": "1H",
        "ImagingFrequency": 123.255627,
        "InPlanePhaseEncodingDirection": "COL",
        "MRAcquisitionType": "2D",
        "MagneticFieldStrength": 3.0,
        "Manufacturer": "SIEMENS",
        "ManufacturerModelName": "TrioTim",
        "MedicalAlerts": "MEDALERTS",
        "Modality": "MR",
        "NumberOfAverages": 1.0,
        "NumberOfPhaseEncodingSteps": 64,
        "PercentPhaseFieldOfView": 100.0,
        "PercentSampling": 100.0,
        "PerformedProcedureStepStartTime": "151454.015000",
        "PhotometricInterpretation": "MONOCHROME2",
        "PixelBandwidth": 2298.0,
        "PixelRepresentation": 0,
        "PixelSpacing": [
          4.0,
          4.0
        ],
        "ProtocolName": "rtfmri_neurofeedback_LocDynamicExpressions",
        "RepetitionTime": 2000.0,
        "RequestAttributesSequence": [
          {
            "RequestedProcedureID": "c4a23d8c-f825-4b",
            "ScheduledProcedureStepDescription": "Unknown",
            "ScheduledProcedureStepID": "c4a23d8c-f825-4b"
          }
        ],
        "Rows": 384,
        "SAR": 0.18345977002657,
        "SamplesPerPixel": 1,
        "ScanOptions": "FS",
        "ScanningSequence": "EP",
        "SequenceName": "*epfid2d1_64",
        "SequenceVariant": "SK",
        "SeriesDescription": "rtfmri_neurofeedback_LocDynamicExpressions",
        "SeriesNumber": 4,
        "SeriesTime": "152708.265000",
        "SliceLocation": -56.946337248496,
        "SliceThickness": 3.0,
        "SmallestImagePixelValue": 0,
        "SoftwareVersions": "syngo MR B17",
        "SpacingBetweenSlices": 2.9999999381853,
        "SpecificCharacterSet": "ISO_IR 100",
        "StudyID": "c4a23d8c-f825-4b",
        "StudyTime": "151453.953000",
        "TransmitCoilName": "Body",
        "VariableFlipAngleFlag": "N",
        "WindowCenterWidthExplanation": "Algo1",
        "dBdt": 0.0
      },
      "slices": {}
    },
    "modality": "bold",
    "run_id": 1,
    "session_id": "01",
    "subject_id": "01",
    "task_id": "faceexplocalizer",
    "time": {
      "samples": {
        "AcquisitionNumber": [
          1,
          2,
          3,
          4,
          5,
          6,
          7,
          8,
          9,
          10,
          11,
          12,
          13,
          14,
          15,
          16,
          17,
          18,
          19,
          20,
          21,
          22,
          23,
          24,
          25,
          26,
          27,
          28,
          29,
          30,
          31,
          32,
          33,
          34,
          35,
          36,
          37,
          38,
          39,
          40,
          41,
          42,
          43,
          44,
          45,
          46,
          47,
          48,
          49,
          50,
          51,
          52,
          53,
          54,
          55,
          56,
          57,
          58,
          59,
          60,
          61,
          62,
          63,
          64,
          65,
          66,
          67,
          68,
          69,
          70,
          71,
          72,
          73,
          74,
          75,
          76,
          77,
          78,
          79,
          80,
          81,
          82,
          83,
          84,
          85,
          86,
          87,
          88,
          89,
          90,
          91,
          92,
          93,
          94,
          95,
          96,
          97,
          98,
          99,
          100,
          101,
          102,
          103,
          104,
          105,
          106,
          107,
          108,
          109,
          110,
          111,
          112,
          113,
          114,
          115,
          116,
          117,
          118,
          119,
          120,
          121,
          122,
          123,
          124,
          125,
          126,
          127,
          128,
          129,
          130,
          131,
          132,
          133,
          134,
          135,
          136,
          137,
          138,
          139,
          140,
          141,
          142,
          143,
          144,
          145,
          146,
          147,
          148,
          149,
          150,
          151,
          152,
          153,
          154,
          155,
          156,
          157,
          158,
          159,
          160
        ],
        "AcquisitionTime": [
          "152705.735000",
          "152707.745000",
          "152709.752500",
          "152711.760000",
          "152713.767500",
          "152715.777500",
          "152717.785000",
          "152719.792500",
          "152721.800000",
          "152723.807500",
          "152725.817500",
          "152727.825000",
          "152729.832500",
          "152731.840000",
          "152733.847500",
          "152735.857500",
          "152737.865000",
          "152739.872500",
          "152741.880000",
          "152743.890000",
          "152745.897500",
          "152747.905000",
          "152749.912500",
          "152751.920000",
          "152753.930000",
          "152755.937500",
          "152757.945000",
          "152759.952500",
          "152801.960000",
          "152803.970000",
          "152805.977500",
          "152807.985000",
          "152809.992500",
          "152812.002500",
          "152814.010000",
          "152816.017500",
          "152818.025000",
          "152820.032500",
          "152822.042500",
          "152824.050000",
          "152826.057500",
          "152828.065000",
          "152830.072500",
          "152832.082500",
          "152834.090000",
          "152836.097500",
          "152838.105000",
          "152840.112500",
          "152842.122500",
          "152844.130000",
          "152846.137500",
          "152848.145000",
          "152850.155000",
          "152852.162500",
          "152854.170000",
          "152856.177500",
          "152858.185000",
          "152900.195000",
          "152902.202500",
          "152904.210000",
          "152906.217500",
          "152908.225000",
          "152910.235000",
          "152912.242500",
          "152914.250000",
          "152916.257500",
          "152918.267500",
          "152920.275000",
          "152922.282500",
          "152924.290000",
          "152926.297500",
          "152928.307500",
          "152930.315000",
          "152932.322500",
          "152934.330000",
          "152936.337500",
          "152938.347500",
          "152940.355000",
          "152942.362500",
          "152944.370000",
          "152946.380000",
          "152948.387500",
          "152950.395000",
          "152952.402500",
          "152954.410000",
          "152956.420000",
          "152958.427500",
          "153000.435000",
          "153002.442500",
          "153004.450000",
          "153006.460000",
          "153008.467500",
          "153010.475000",
          "153012.482500",
          "153014.490000",
          "153016.500000",
          "153018.507500",
          "153020.515000",
          "153022.522500",
          "153024.532500",
          "153026.540000",
          "153028.547500",
          "153030.555000",
          "153032.562500",
          "153034.572500",
          "153036.580000",
          "153038.587500",
          "153040.595000",
          "153042.602500",
          "153044.612500",
          "153046.620000",
          "153048.627500",
          "153050.635000",
          "153052.645000",
          "153054.652500",
          "153056.660000",
          "153058.667500",
          "153100.675000",
          "153102.685000",
          "153104.692500",
          "153106.700000",
          "153108.707500",
          "153110.715000",
          "153112.725000",
          "153114.732500",
          "153116.740000",
          "153118.747500",
          "153120.757500",
          "153122.765000",
          "153124.772500",
          "153126.780000",
          "153128.787500",
          "153130.797500",
          "153132.805000",
          "153134.812500",
          "153136.820000",
          "153138.827500",
          "153140.837500",
          "153142.845000",
          "153144.852500",
          "153146.860000",
          "153148.867500",
          "153150.877500",
          "153152.885000",
          "153154.892500",
          "153156.900000",
          "153158.910000",
          "153200.917500",
          "153202.925000",
          "153204.932500",
          "153206.940000",
          "153208.950000",
          "153210.957500",
          "153212.965000",
          "153214.972500",
          "153216.980000",
          "153218.990000",
          "153220.997500",
          "153223.005000",
          "153225.012500"
        ],
        "ContentTime": [
          "152708.265000",
          "152710.265000",
          "152712.265000",
          "152714.265000",
          "152716.265000",
          "152718.265000",
          "152720.265000",
          "152722.265000",
          "152724.265000",
          "152726.265000",
          "152728.265000",
          "152730.265000",
          "152732.265000",
          "152734.265000",
          "152736.265000",
          "152738.265000",
          "152740.265000",
          "152742.265000",
          "152744.265000",
          "152746.265000",
          "152748.265000",
          "152750.265000",
          "152752.265000",
          "152754.265000",
          "152756.265000",
          "152758.265000",
          "152800.265000",
          "152802.265000",
          "152804.265000",
          "152806.265000",
          "152808.265000",
          "152810.265000",
          "152812.265000",
          "152814.265000",
          "152816.265000",
          "152818.265000",
          "152820.265000",
          "152822.265000",
          "152824.265000",
          "152826.265000",
          "152828.265000",
          "152830.265000",
          "152832.265000",
          "152834.265000",
          "152836.265000",
          "152838.265000",
          "152840.265000",
          "152842.265000",
          "152844.265000",
          "152846.265000",
          "152848.265000",
          "152850.265000",
          "152852.265000",
          "152854.265000",
          "152856.265000",
          "152858.265000",
          "152900.265000",
          "152902.265000",
          "152904.265000",
          "152906.265000",
          "152908.265000",
          "152910.265000",
          "152912.265000",
          "152914.265000",
          "152916.265000",
          "152918.265000",
          "152920.265000",
          "152922.265000",
          "152924.265000",
          "152926.265000",
          "152928.265000",
          "152930.265000",
          "152932.265000",
          "152934.265000",
          "152936.265000",
          "152938.265000",
          "152940.265000",
          "152942.265000",
          "152944.265000",
          "152946.265000",
          "152948.265000",
          "152950.265000",
          "152952.265000",
          "152954.265000",
          "152956.265000",
          "152958.265000",
          "153000.265000",
          "153002.265000",
          "153004.265000",
          "153006.265000",
          "153008.265000",
          "153010.265000",
          "153012.265000",
          "153014.265000",
          "153016.265000",
          "153018.265000",
          "153020.265000",
          "153022.265000",
          "153024.265000",
          "153026.265000",
          "153028.265000",
          "153030.265000",
          "153032.265000",
          "153034.265000",
          "153036.265000",
          "153038.265000",
          "153040.265000",
          "153042.265000",
          "153044.265000",
          "153046.265000",
          "153048.265000",
          "153050.265000",
          "153052.265000",
          "153054.265000",
          "153056.265000",
          "153058.265000",
          "153100.265000",
          "153102.265000",
          "153104.265000",
          "153106.265000",
          "153108.265000",
          "153110.265000",
          "153112.265000",
          "153114.265000",
          "153116.265000",
          "153118.265000",
          "153120.265000",
          "153122.265000",
          "153124.265000",
          "153126.265000",
          "153128.265000",
          "153130.265000",
          "153132.265000",
          "153134.265000",
          "153136.265000",
          "153138.265000",
          "153140.265000",
          "153142.265000",
          "153144.265000",
          "153146.265000",
          "153148.265000",
          "153150.265000",
          "153152.265000",
          "153154.265000",
          "153156.265000",
          "153158.265000",
          "153200.265000",
          "153202.265000",
          "153204.265000",
          "153206.265000",
          "153208.265000",
          "153210.265000",
          "153212.265000",
          "153214.265000",
          "153216.265000",
          "153218.265000",
          "153220.265000",
          "153222.265000",
          "153224.265000",
          "153226.125000"
        ],
        "InstanceCreationTime": [
          "152708.265000",
          "152710.265000",
          "152712.265000",
          "152714.265000",
          "152716.265000",
          "152718.265000",
          "152720.265000",
          "152722.265000",
          "152724.265000",
          "152726.265000",
          "152728.265000",
          "152730.265000",
          "152732.265000",
          "152734.265000",
          "152736.265000",
          "152738.265000",
          "152740.265000",
          "152742.265000",
          "152744.265000",
          "152746.265000",
          "152748.265000",
          "152750.265000",
          "152752.265000",
          "152754.265000",
          "152756.265000",
          "152758.265000",
          "152800.265000",
          "152802.265000",
          "152804.265000",
          "152806.265000",
          "152808.265000",
          "152810.265000",
          "152812.265000",
          "152814.265000",
          "152816.265000",
          "152818.265000",
          "152820.265000",
          "152822.265000",
          "152824.265000",
          "152826.265000",
          "152828.265000",
          "152830.265000",
          "152832.265000",
          "152834.265000",
          "152836.265000",
          "152838.265000",
          "152840.265000",
          "152842.265000",
          "152844.265000",
          "152846.265000",
          "152848.265000",
          "152850.265000",
          "152852.265000",
          "152854.265000",
          "152856.265000",
          "152858.265000",
          "152900.265000",
          "152902.265000",
          "152904.265000",
          "152906.265000",
          "152908.265000",
          "152910.265000",
          "152912.265000",
          "152914.265000",
          "152916.265000",
          "152918.265000",
          "152920.265000",
          "152922.265000",
          "152924.265000",
          "152926.265000",
          "152928.265000",
          "152930.265000",
          "152932.265000",
          "152934.265000",
          "152936.265000",
          "152938.265000",
          "152940.265000",
          "152942.265000",
          "152944.265000",
          "152946.265000",
          "152948.265000",
          "152950.265000",
          "152952.265000",
          "152954.265000",
          "152956.265000",
          "152958.265000",
          "153000.265000",
          "153002.265000",
          "153004.265000",
          "153006.265000",
          "153008.265000",
          "153010.265000",
          "153012.265000",
          "153014.265000",
          "153016.265000",
          "153018.265000",
          "153020.265000",
          "153022.265000",
          "153024.265000",
          "153026.265000",
          "153028.265000",
          "153030.265000",
          "153032.265000",
          "153034.265000",
          "153036.265000",
          "153038.265000",
          "153040.265000",
          "153042.265000",
          "153044.265000",
          "153046.265000",
          "153048.265000",
          "153050.265000",
          "153052.265000",
          "153054.265000",
          "153056.265000",
          "153058.265000",
          "153100.265000",
          "153102.265000",
          "153104.265000",
          "153106.265000",
          "153108.265000",
          "153110.265000",
          "153112.265000",
          "153114.265000",
          "153116.265000",
          "153118.265000",
          "153120.265000",
          "153122.265000",
          "153124.265000",
          "153126.265000",
          "153128.265000",
          "153130.265000",
          "153132.265000",
          "153134.265000",
          "153136.265000",
          "153138.265000",
          "153140.265000",
          "153142.265000",
          "153144.265000",
          "153146.265000",
          "153148.265000",
          "153150.265000",
          "153152.265000",
          "153154.265000",
          "153156.265000",
          "153158.265000",
          "153200.265000",
          "153202.265000",
          "153204.265000",
          "153206.265000",
          "153208.265000",
          "153210.265000",
          "153212.265000",
          "153214.265000",
          "153216.265000",
          "153218.265000",
          "153220.265000",
          "153222.265000",
          "153224.265000",
          "153226.125000"
        ],
        "InstanceNumber": [
          1,
          2,
          3,
          4,
          5,
          6,
          7,
          8,
          9,
          10,
          11,
          12,
          13,
          14,
          15,
          16,
          17,
          18,
          19,
          20,
          21,
          22,
          23,
          24,
          25,
          26,
          27,
          28,
          29,
          30,
          31,
          32,
          33,
          34,
          35,
          36,
          37,
          38,
          39,
          40,
          41,
          42,
          43,
          44,
          45,
          46,
          47,
          48,
          49,
          50,
          51,
          52,
          53,
          54,
          55,
          56,
          57,
          58,
          59,
          60,
          61,
          62,
          63,
          64,
          65,
          66,
          67,
          68,
          69,
          70,
          71,
          72,
          73,
          74,
          75,
          76,
          77,
          78,
          79,
          80,
          81,
          82,
          83,
          84,
          85,
          86,
          87,
          88,
          89,
          90,
          91,
          92,
          93,
          94,
          95,
          96,
          97,
          98,
          99,
          100,
          101,
          102,
          103,
          104,
          105,
          106,
          107,
          108,
          109,
          110,
          111,
          112,
          113,
          114,
          115,
          116,
          117,
          118,
          119,
          120,
          121,
          122,
          123,
          124,
          125,
          126,
          127,
          128,
          129,
          130,
          131,
          132,
          133,
          134,
          135,
          136,
          137,
          138,
          139,
          140,
          141,
          142,
          143,
          144,
          145,
          146,
          147,
          148,
          149,
          150,
          151,
          152,
          153,
          154,
          155,
          156,
          157,
          158,
          159,
          160
        ],
        "LargestImagePixelValue": [
          1623,
          1573,
          1562,
          1543,
          1536,
          1611,
          1579,
          1573,
          1553,
          1550,
          1551,
          1535,
          1527,
          1549,
          1544,
          1566,
          1549,
          1525,
          1540,
          1627,
          1514,
          1556,
          1531,
          1548,
          1523,
          1518,
          1522,
          1536,
          1518,
          1540,
          1810,
          1534,
          1533,
          1546,
          1535,
          1512,
          1521,
          1525,
          1524,
          1531,
          1541,
          1503,
          1518,
          1516,
          1513,
          1509,
          1519,
          1506,
          1501,
          1465,
          1659,
          1565,
          1551,
          1552,
          1534,
          1557,
          1538,
          1534,
          1544,
          1579,
          1549,
          1533,
          1542,
          1544,
          1553,
          1540,
          1547,
          1835,
          1542,
          1539,
          1530,
          1509,
          1540,
          1501,
          1518,
          1525,
          1490,
          1514,
          1503,
          1519,
          1492,
          1499,
          1494,
          1493,
          1490,
          1556,
          1524,
          1536,
          1513,
          1513,
          1484,
          1502,
          1507,
          1490,
          1582,
          1494,
          1494,
          1489,
          1525,
          1486,
          1507,
          1541,
          1555,
          1513,
          1511,
          1535,
          1538,
          1546,
          1529,
          1551,
          1552,
          1532,
          1636,
          1524,
          1515,
          1543,
          1591,
          1550,
          1674,
          1516,
          1536,
          1498,
          1508,
          1485,
          1537,
          1503,
          1513,
          1522,
          1509,
          1494,
          1561,
          1497,
          1486,
          1498,
          1508,
          1494,
          1518,
          1492,
          1506,
          1495,
          1520,
          1508,
          1497,
          1623,
          1537,
          1578,
          1625,
          1514,
          1501,
          1503,
          1519,
          1489,
          1519,
          1500,
          1524,
          1525,
          1518,
          1533,
          1500,
          1501
        ],
        "WindowCenter": [
          650.0,
          649.0,
          648.0,
          648.0,
          647.0,
          649.0,
          649.0,
          648.0,
          647.0,
          646.0,
          647.0,
          649.0,
          649.0,
          649.0,
          649.0,
          649.0,
          648.0,
          649.0,
          648.0,
          648.0,
          648.0,
          650.0,
          648.0,
          648.0,
          648.0,
          649.0,
          649.0,
          649.0,
          648.0,
          648.0,
          648.0,
          646.0,
          647.0,
          645.0,
          645.0,
          646.0,
          645.0,
          646.0,
          646.0,
          646.0,
          648.0,
          648.0,
          648.0,
          648.0,
          647.0,
          647.0,
          647.0,
          647.0,
          648.0,
          645.0,
          651.0,
          650.0,
          649.0,
          649.0,
          650.0,
          649.0,
          648.0,
          649.0,
          648.0,
          648.0,
          649.0,
          649.0,
          649.0,
          649.0,
          649.0,
          650.0,
          651.0,
          650.0,
          647.0,
          647.0,
          648.0,
          649.0,
          650.0,
          649.0,
          649.0,
          650.0,
          649.0,
          648.0,
          648.0,
          648.0,
          648.0,
          648.0,
          649.0,
          649.0,
          649.0,
          650.0,
          651.0,
          651.0,
          650.0,
          649.0,
          650.0,
          650.0,
          650.0,
          649.0,
          649.0,
          648.0,
          649.0,
          648.0,
          649.0,
          649.0,
          649.0,
          649.0,
          650.0,
          649.0,
          651.0,
          650.0,
          649.0,
          650.0,
          649.0,
          650.0,
          650.0,
          649.0,
          650.0,
          649.0,
          648.0,
          648.0,
          649.0,
          650.0,
          650.0,
          648.0,
          648.0,
          648.0,
          649.0,
          649.0,
          649.0,
          648.0,
          648.0,
          649.0,
          649.0,
          648.0,
          648.0,
          648.0,
          648.0,
          648.0,
          649.0,
          649.0,
          649.0,
          648.0,
          649.0,
          649.0,
          650.0,
          650.0,
          651.0,
          648.0,
          651.0,
          649.0,
          649.0,
          648.0,
          648.0,
          648.0,
          649.0,
          649.0,
          649.0,
          648.0,
          649.0,
          649.0,
          650.0,
          650.0,
          650.0,
          649.0
        ],
        "WindowWidth": [
          1389.0,
