{
  "aor": 0.0008583750000000001,
  "aqi": 0.0083203151875,
  "bids_meta": {
    "AcquisitionMatrixPE": 64,
    "AcquisitionNumber": 1,
    "AcquisitionTime": "11:54:47.747500",
    "BandwidthPerPixelPhaseEncode": 31.25,
    "BaseResolution": 64,
    "CoilCombinationMethod": "Sum of Squares",
    "CoilString": "C:HEA;HEP",
    "ConversionSoftware": "dcm2niix",
    "ConversionSoftwareVersion": "v1.0.20211006",
    "DerivedVendorReportedEchoSpacing": 0.0005,
    "DeviceSerialNumber": "35377",
    "DwellTime": 3.4e-06,
    "EchoTime": 0.03,
    "EffectiveEchoSpacing": 0.0005,
    "FlipAngle": 90,
    "ImageOrientationPatientDICOM": [
      0.998188,
      0.0520949,
      -0.0301063,
      -0.0558074,
      0.98863,
      -0.139626
    ],
    "ImageOrientationText": "Tra>Cor(-8.1)>Sag(-1.3)",
    "ImageType": [
      "ORIGINAL",
      "PRIMARY",
      "M",
      "ND",
      "MOSAIC"
    ],
    "ImagingFrequency": 123.256,
    "InPlanePhaseEncodingDirectionDICOM": "COL",
    "InstitutionAddress": "Azinhaga Santa Comba StreetNo,Coimbra,District,PT,3000",
    "InstitutionName": "IBILI",
    "InstitutionalDepartmentName": "Department",
    "MRAcquisitionType": "2D",
    "MagneticFieldStrength": 3,
    "Manufacturer": "Siemens",
    "ManufacturersModelName": "TrioTim",
    "MatrixCoilMode": "SENSE",
    "Modality": "MR",
    "PartialFourier": 1,
    "PatientPosition": "HFS",
    "PercentPhaseFOV": 100,
    "PercentSampling": 100,
    "PhaseEncodingDirection": "j-",
    "PhaseEncodingSteps": 64,
    "PhaseResolution": 1,
    "PixelBandwidth": 2298,
    "ProcedureStepDescription": "Unknown",
    "ProtocolName": "rtfmri_neurofeedback_LocDynamicExpressions",
    "PulseSequenceDetails": "%SiemensSeq%\\ep2d_bold",
    "ReceiveCoilName": "HeadMatrix",
    "ReconMatrixPE": 64,
    "RepetitionTime": 2,
    "SAR": 0.167534,
    "ScanOptions": "FS",
    "ScanningSequence": "EP",
    "SequenceName": "*epfid2d1_64",
    "SequenceVariant": "SK",
    "SeriesDescription": "rtfmri_neurofeedback_LocDynamicExpressions",
    "SeriesNumber": 5,
    "ShimSetting": [
      15820,
      7503,
      21344,
      375,
      305,
      136,
      -233,
      103
    ],
    "SliceThickness": 3,
    "SliceTiming": [
      0,
      1.035,
      0.06,
      1.095,
      0.1225,
      1.155,
      0.1825,
      1.2175,
      0.2425,
      1.2775,
      0.305,
      1.3375,
      0.365,
      1.4,
      0.425,
      1.46,
      0.4875,
      1.52,
      0.5475,
      1.5825,
      0.6075,
      1.6425,
      0.67,
      1.7025,
      0.73,
      1.765,
      0.79,
      1.825,
      0.8525,
      1.885,
      0.9125,
      1.9475,
      0.9725
    ],
    "SoftwareVersions": "syngo MR B17",
    "SpacingBetweenSlices": 3,
    "StationName": "MRC35377",
    "TaskName": "faceexplocalizer",
    "TotalReadoutTime": 0.0315,
    "TxRefAmp": 386.682,
    "dataset": "ds004141",
    "dcmmeta_affine": [
      [
        -3.99275279045105,
        -0.22322949767112732,
        -0.06747058033943176,
        138.1243438720703
      ],
      [
        -0.20837973058223724,
        3.954521656036377,
        -0.4231601655483246,
        -70.659423828125
      ],
      [
        -0.12042523920536041,
        0.5585048198699951,
        2.9692394733428955,
        -75.55908966064453
      ],
      [
        0.0,
        0.0,
        0.0,
        1.0
      ]
    ],
    "dcmmeta_reorient_transform": [
      [
        0.0,
        -1.0,
        0.0,
        63.0
      ],
      [
        1.0,
        0.0,
        0.0,
        0.0
      ],
      [
        0.0,
        0.0,
        1.0,
        0.0
      ],
      [
        0.0,
        0.0,
        0.0,
        1.0
      ]
    ],
    "dcmmeta_shape": [
      64,
      64,
      33,
      160
    ],
    "dcmmeta_slice_dim": 2,
    "dcmmeta_version": 0.6,
    "global": {
      "const": {
        "AccessionNumber": "JML20150326-0315",
        "AcquisitionMatrix": [
          64,
          0,
          0,
          64
        ],
        "Allergies": "MEDALERGIESL",
        "AngioFlag": "N",
        "BitsAllocated": 16,
        "BitsStored": 12,
        "Columns": 384,
        "EchoNumbers": 1,
        "EchoTime": 30.0,
        "EchoTrainLength": 1,
        "FlipAngle": 90.0,
        "HighBit": 11,
        "ImageOrientationPatient": [
          0.99818822280914,
          0.05209493243444,
          -0.030106309302,
          -0.0558073740469,
          0.98863039522641,
          -0.1396262104208
        ],
        "ImagePositionPatient": [
          -727.18462785668,
          -844.53964395921,
          68.255526532627
        ],
        "ImageType": [
          "ORIGINAL",
          "PRIMARY",
          "M",
          "ND",
          "MOSAIC"
        ],
        "ImagedNucleus": "1H",
        "ImagingFrequency": 123.25565,
        "InPlanePhaseEncodingDirection": "COL",
        "MRAcquisitionType": "2D",
        "MagneticFieldStrength": 3.0,
        "Manufacturer": "SIEMENS",
        "ManufacturerModelName": "TrioTim",
        "MedicalAlerts": "MEDALERTS",
        "Modality": "MR",
        "NumberOfAverages": 1.0,
        "NumberOfPhaseEncodingSteps": 64,
        "PercentPhaseFieldOfView": 100.0,
        "PercentSampling": 100.0,
        "PerformedProcedureStepStartTime": "113359.406000",
        "PhotometricInterpretation": "MONOCHROME2",
        "PixelBandwidth": 2298.0,
        "PixelRepresentation": 0,
        "PixelSpacing": [
          4.0,
          4.0
        ],
        "ProtocolName": "rtfmri_neurofeedback_LocDynamicExpressions",
        "RepetitionTime": 2000.0,
        "RequestAttributesSequence": [
          {
            "RequestedProcedureID": "7d486359-f3ad-41",
            "ScheduledProcedureStepDescription": "Unknown",
            "ScheduledProcedureStepID": "7d486359-f3ad-41"
          }
        ],
        "Rows": 384,
        "SAR": 0.16753403055434,
        "SamplesPerPixel": 1,
        "ScanOptions": "FS",
        "ScanningSequence": "EP",
        "SequenceName": "*epfid2d1_64",
        "SequenceVariant": "SK",
        "SeriesDescription": "rtfmri_neurofeedback_LocDynamicExpressions",
        "SeriesNumber": 5,
        "SeriesTime": "115451.359000",
        "SliceLocation": -67.924037517673,
        "SliceThickness": 3.0,
        "SmallestImagePixelValue": 0,
        "SoftwareVersions": "syngo MR B17",
        "SpacingBetweenSlices": 2.999999980033,
        "SpecificCharacterSet": "ISO_IR 100",
        "StudyID": "7d486359-f3ad-41",
        "StudyTime": "113359.343000",
        "TransmitCoilName": "Body",
        "VariableFlipAngleFlag": "N",
        "WindowCenterWidthExplanation": "Algo1",
        "dBdt": 0.0
      },
      "slices": {}
    },
    "modality": "bold",
    "run_id": 1,
    "session_id": "01",
    "subject_id": "05",
    "task_id": "faceexplocalizer",
    "time": {
      "samples": {
        "AcquisitionNumber": [
          1,
          2,
          3,
          4,
          5,
          6,
          7,
          8,
          9,
          10,
          11,
          12,
          13,
          14,
          15,
          16,
          17,
          18,
          19,
          20,
          21,
          22,
          23,
          24,
          25,
          26,
          27,
          28,
          29,
          30,
          31,
          32,
          33,
          34,
          35,
          36,
          37,
          38,
          39,
          40,
          41,
          42,
          43,
          44,
          45,
          46,
          47,
          48,
          49,
          50,
          51,
          52,
          53,
          54,
          55,
          56,
          57,
          58,
          59,
          60,
          61,
          62,
          63,
          64,
          65,
          66,
          67,
          68,
          69,
          70,
          71,
          72,
          73,
          74,
          75,
          76,
          77,
          78,
          79,
          80,
          81,
          82,
          83,
          84,
          85,
          86,
          87,
          88,
          89,
          90,
          91,
          92,
          93,
          94,
          95,
          96,
          97,
          98,
          99,
          100,
          101,
          102,
          103,
          104,
          105,
          106,
          107,
          108,
          109,
          110,
          111,
          112,
          113,
          114,
          115,
          116,
          117,
          118,
          119,
          120,
          121,
          122,
          123,
          124,
          125,
          126,
          127,
          128,
          129,
          130,
          131,
          132,
          133,
          134,
          135,
          136,
          137,
          138,
          139,
          140,
          141,
          142,
          143,
          144,
          145,
          146,
          147,
          148,
          149,
          150,
          151,
          152,
          153,
          154,
          155,
          156,
          157,
          158,
          159,
          160
        ],
        "AcquisitionTime": [
          "115447.747500",
          "115449.755000",
          "115451.762500",
          "115453.772500",
          "115455.780000",
          "115457.787500",
          "115459.795000",
          "115501.805000",
          "115503.812500",
          "115505.820000",
          "115507.827500",
          "115509.835000",
          "115511.845000",
          "115513.852500",
          "115515.860000",
          "115517.867500",
          "115519.875000",
          "115521.885000",
          "115523.892500",
          "115525.900000",
          "115527.907500",
          "115529.917500",
          "115531.925000",
          "115533.932500",
          "115535.940000",
          "115537.947500",
          "115539.957500",
          "115541.965000",
          "115543.972500",
          "115545.980000",
          "115547.987500",
          "115549.997500",
          "115552.005000",
          "115554.012500",
          "115556.020000",
          "115558.030000",
          "115600.037500",
          "115602.045000",
          "115604.052500",
          "115606.060000",
          "115608.070000",
          "115610.077500",
          "115612.085000",
          "115614.092500",
          "115616.100000",
          "115618.110000",
          "115620.117500",
          "115622.125000",
          "115624.132500",
          "115626.140000",
          "115628.150000",
          "115630.157500",
          "115632.165000",
          "115634.172500",
          "115636.182500",
          "115638.190000",
          "115640.197500",
          "115642.205000",
          "115644.212500",
          "115646.222500",
          "115648.230000",
          "115650.237500",
          "115652.245000",
          "115654.252500",
          "115656.262500",
          "115658.270000",
          "115700.277500",
          "115702.285000",
          "115704.295000",
          "115706.302500",
          "115708.310000",
          "115710.317500",
          "115712.325000",
          "115714.335000",
          "115716.342500",
          "115718.350000",
          "115720.357500",
          "115722.365000",
          "115724.375000",
          "115726.382500",
          "115728.390000",
          "115730.397500",
          "115732.407500",
          "115734.415000",
          "115736.422500",
          "115738.430000",
          "115740.437500",
          "115742.447500",
          "115744.455000",
          "115746.462500",
          "115748.470000",
          "115750.477500",
          "115752.487500",
          "115754.495000",
          "115756.502500",
          "115758.510000",
          "115800.517500",
          "115802.527500",
          "115804.535000",
          "115806.542500",
          "115808.550000",
          "115810.560000",
          "115812.567500",
          "115814.575000",
          "115816.582500",
          "115818.590000",
          "115820.600000",
          "115822.607500",
          "115824.615000",
          "115826.622500",
          "115828.630000",
          "115830.640000",
          "115832.647500",
          "115834.655000",
          "115836.662500",
          "115838.672500",
          "115840.680000",
          "115842.687500",
          "115844.695000",
          "115846.702500",
          "115848.712500",
          "115850.720000",
          "115852.727500",
          "115854.735000",
          "115856.742500",
          "115858.752500",
          "115900.760000",
          "115902.767500",
          "115904.775000",
          "115906.785000",
          "115908.792500",
          "115910.800000",
          "115912.807500",
          "115914.815000",
          "115916.825000",
          "115918.832500",
          "115920.840000",
          "115922.847500",
          "115924.855000",
          "115926.865000",
          "115928.872500",
          "115930.880000",
          "115932.887500",
          "115934.895000",
          "115936.905000",
          "115938.912500",
          "115940.920000",
          "115942.927500",
          "115944.937500",
          "115946.945000",
          "115948.952500",
          "115950.960000",
          "115952.967500",
          "115954.977500",
          "115956.985000",
          "115958.992500",
          "120001.000000",
          "120003.007500",
          "120005.017500",
          "120007.025000"
        ],
        "ContentTime": [
          "115451.359000",
          "115453.359000",
          "115455.359000",
          "115457.359000",
          "115459.359000",
          "115501.359000",
          "115503.359000",
          "115505.359000",
          "115507.359000",
          "115509.359000",
          "115511.359000",
          "115513.359000",
          "115515.359000",
          "115517.359000",
          "115519.359000",
          "115521.359000",
          "115523.359000",
          "115525.359000",
          "115527.359000",
          "115529.359000",
          "115531.359000",
          "115533.359000",
          "115535.359000",
          "115537.359000",
          "115539.359000",
          "115541.359000",
          "115543.359000",
          "115545.359000",
          "115547.359000",
          "115549.359000",
          "115551.359000",
          "115553.359000",
          "115555.359000",
          "115557.359000",
          "115559.359000",
          "115601.359000",
          "115603.359000",
          "115605.359000",
          "115607.359000",
          "115609.359000",
          "115611.359000",
          "115613.359000",
          "115615.359000",
          "115617.359000",
          "115619.359000",
          "115621.359000",
          "115623.359000",
          "115625.359000",
          "115627.359000",
          "115629.359000",
          "115631.359000",
          "115633.359000",
          "115635.359000",
          "115637.359000",
          "115639.359000",
          "115641.359000",
          "115643.359000",
          "115645.359000",
          "115647.359000",
          "115649.359000",
          "115651.359000",
          "115653.359000",
          "115655.359000",
          "115657.359000",
          "115659.359000",
          "115701.359000",
          "115703.359000",
          "115705.359000",
          "115707.359000",
          "115709.359000",
          "115711.359000",
          "115713.359000",
          "115715.359000",
          "115717.359000",
          "115719.359000",
          "115721.359000",
          "115723.359000",
          "115725.359000",
          "115727.359000",
          "115729.359000",
          "115731.359000",
          "115733.359000",
          "115735.359000",
          "115737.359000",
          "115739.359000",
          "115741.359000",
          "115743.359000",
          "115745.359000",
          "115747.359000",
          "115749.359000",
          "115751.359000",
          "115753.359000",
          "115755.359000",
          "115757.359000",
          "115759.359000",
          "115801.359000",
          "115803.359000",
          "115805.359000",
          "115807.359000",
          "115809.359000",
          "115811.359000",
          "115813.359000",
          "115815.359000",
          "115817.359000",
          "115819.359000",
          "115821.359000",
          "115823.359000",
          "115825.359000",
          "115827.359000",
          "115829.359000",
          "115831.359000",
          "115833.359000",
          "115835.359000",
          "115837.359000",
          "115839.359000",
          "115841.359000",
          "115843.359000",
          "115845.359000",
          "115847.359000",
          "115849.359000",
          "115851.359000",
          "115853.359000",
          "115855.359000",
          "115857.359000",
          "115859.359000",
          "115901.359000",
          "115903.359000",
          "115905.359000",
          "115907.359000",
          "115909.359000",
          "115911.359000",
          "115913.359000",
          "115915.359000",
          "115917.359000",
          "115919.359000",
          "115921.359000",
          "115923.359000",
          "115925.359000",
          "115927.359000",
          "115929.359000",
          "115931.359000",
          "115933.359000",
          "115935.359000",
          "115937.359000",
          "115939.359000",
          "115941.359000",
          "115943.359000",
          "115945.359000",
          "115947.359000",
          "115949.359000",
          "115951.359000",
          "115953.359000",
          "115955.359000",
          "115957.359000",
          "115959.359000",
          "120001.359000",
          "120003.359000",
          "120005.359000",
          "120007.359000",
          "120008.953000"
        ],
        "InstanceCreationTime": [
          "115451.359000",
          "115453.359000",
          "115455.359000",
          "115457.359000",
          "115459.359000",
          "115501.359000",
          "115503.359000",
          "115505.359000",
          "115507.359000",
          "115509.359000",
          "115511.359000",
          "115513.359000",
          "115515.359000",
          "115517.359000",
          "115519.359000",
          "115521.359000",
          "115523.359000",
          "115525.359000",
          "115527.359000",
          "115529.359000",
          "115531.359000",
          "115533.359000",
          "115535.359000",
          "115537.359000",
          "115539.359000",
          "115541.359000",
          "115543.359000",
          "115545.359000",
          "115547.359000",
          "115549.359000",
          "115551.359000",
          "115553.359000",
          "115555.359000",
          "115557.359000",
          "115559.359000",
          "115601.359000",
          "115603.359000",
          "115605.359000",
          "115607.359000",
          "115609.359000",
          "115611.359000",
          "115613.359000",
          "115615.359000",
          "115617.359000",
          "115619.359000",
          "115621.359000",
          "115623.359000",
          "115625.359000",
          "115627.359000",
          "115629.359000",
          "115631.359000",
          "115633.359000",
          "115635.359000",
          "115637.359000",
          "115639.359000",
          "115641.359000",
          "115643.359000",
          "115645.359000",
          "115647.359000",
          "115649.359000",
          "115651.359000",
          "115653.359000",
          "115655.359000",
          "115657.359000",
          "115659.359000",
          "115701.359000",
          "115703.359000",
          "115705.359000",
          "115707.359000",
          "115709.359000",
          "115711.359000",
          "115713.359000",
          "115715.359000",
          "115717.359000",
          "115719.359000",
          "115721.359000",
          "115723.359000",
          "115725.359000",
          "115727.359000",
          "115729.359000",
          "115731.359000",
          "115733.359000",
          "115735.359000",
          "115737.359000",
          "115739.359000",
          "115741.359000",
          "115743.359000",
          "115745.359000",
          "115747.359000",
          "115749.359000",
          "115751.359000",
          "115753.359000",
          "115755.359000",
          "115757.359000",
          "115759.359000",
          "115801.359000",
          "115803.359000",
          "115805.359000",
          "115807.359000",
          "115809.359000",
          "115811.359000",
          "115813.359000",
          "115815.359000",
          "115817.359000",
          "115819.359000",
          "115821.359000",
          "115823.359000",
          "115825.359000",
          "115827.359000",
          "115829.359000",
          "115831.359000",
          "115833.359000",
          "115835.359000",
          "115837.359000",
          "115839.359000",
          "115841.359000",
          "115843.359000",
          "115845.359000",
          "115847.359000",
          "115849.359000",
          "115851.359000",
          "115853.359000",
          "115855.359000",
          "115857.359000",
          "115859.359000",
          "115901.359000",
          "115903.359000",
          "115905.359000",
          "115907.359000",
          "115909.359000",
          "115911.359000",
          "115913.359000",
          "115915.359000",
          "115917.359000",
          "115919.359000",
          "115921.359000",
          "115923.359000",
          "115925.359000",
          "115927.359000",
          "115929.359000",
          "115931.359000",
          "115933.359000",
          "115935.359000",
          "115937.359000",
          "115939.359000",
          "115941.359000",
          "115943.359000",
          "115945.359000",
          "115947.359000",
          "115949.359000",
          "115951.359000",
          "115953.359000",
          "115955.359000",
          "115957.359000",
          "115959.359000",
          "120001.359000",
          "120003.359000",
          "120005.359000",
          "120007.359000",
          "120008.953000"
        ],
        "InstanceNumber": [
          1,
          2,
          3,
          4,
          5,
          6,
          7,
          8,
          9,
          10,
          11,
          12,
          13,
          14,
          15,
          16,
          17,
          18,
          19,
          20,
          21,
          22,
          23,
          24,
          25,
          26,
          27,
          28,
          29,
          30,
          31,
          32,
          33,
          34,
          35,
          36,
          37,
          38,
          39,
          40,
          41,
          42,
          43,
          44,
          45,
          46,
          47,
          48,
          49,
          50,
          51,
          52,
          53,
          54,
          55,
          56,
          57,
          58,
          59,
          60,
          61,
          62,
          63,
          64,
          65,
          66,
          67,
          68,
          69,
          70,
          71,
          72,
          73,
          74,
          75,
          76,
          77,
          78,
          79,
          80,
          81,
          82,
          83,
          84,
          85,
          86,
          87,
          88,
          89,
          90,
          91,
          92,
          93,
          94,
          95,
          96,
          97,
          98,
          99,
          100,
          101,
          102,
          103,
          104,
          105,
          106,
          107,
          108,
          109,
          110,
          111,
          112,
          113,
          114,
          115,
          116,
          117,
          118,
          119,
          120,
          121,
          122,
          123,
          124,
          125,
          126,
          127,
          128,
          129,
          130,
          131,
          132,
          133,
          134,
          135,
          136,
          137,
          138,
          139,
          140,
          141,
          142,
          143,
          144,
          145,
          146,
          147,
          148,
          149,
          150,
          151,
          152,
          153,
          154,
          155,
          156,
          157,
          158,
          159,
          160
        ],
        "LargestImagePixelValue": [
          1420,
          1478,
          1406,
          1408,
          1425,
          1418,
          1492,
          1440,
          1428,
          1441,
          1424,
          1440,
          1398,
          1423,
          1586,
          1399,
          1407,
          1450,
          1405,
          1430,
          1968,
          1391,
          1408,
          1538,
          1403,
          1383,
          1513,
          1427,
          1551,
          1639,
          1411,
          1404,
          1424,
          1440,
          1600,
          1425,
          1432,
          1421,
          1383,
          1434,
          1728,
          1389,
          1422,
          1661,
          1405,
          1412,
          1431,
          1529,
          1400,
          1416,
          1425,
          1417,
          1425,
          1763,
          1412,
          1420,
          1390,
          1419,
          1417,
          1425,
          1725,
          1416,
          1412,
          1407,
          1400,
          1408,
          1412,
          1423,
          1420,
          1432,
          1442,
          1510,
          1422,
          1603,
          1418,
          1415,
          1404,
          1399,
          1430,
          1415,
          1583,
          1971,
          1392,
          1410,
          1429,
          1413,
          1440,
          1431,
          1421,
          1927,
          1651,
          1400,
          1425,
          1649,
          1417,
          1434,
          1445,
          1426,
          1442,
          1444,
          1430,
          1438,
          1627,
          2044,
          1716,
          1416,
          1405,
          1413,
          1421,
          1510,
          1424,
          1414,
          1491,
          1424,
          1424,
          1418,
          1437,
          1409,
          1413,
          1409,
          1901,
          1601,
          1428,
          1447,
          1735,
          1967,
          1412,
          1414,
          1413,
          1416,
          1423,
          1427,
          1925,
          1410,
          1406,
          1693,
          1416,
          1683,
          1435,
          1386,
          1413,
          1737,
          1421,
          1455,
          1474,
          1422,
          1422,
          1435,
          1875,
          1411,
          1400,
          1422,
          1427,
          1443,
          1825,
          1552,
          1438,
          1420,
          1423,
          1434
        ],
        "WindowCenter": [
          643.0,
          643.0,
          642.0,
          642.0,
          642.0,
          643.0,
          644.0,
          643.0,
          643.0,
          643.0,
          643.0,
          643.0,
          643.0,
          643.0,
          644.0,
          642.0,
          643.0,
          644.0,
          643.0,
          643.0,
          645.0,
          640.0,
          639.0,
          641.0,
          640.0,
          640.0,
          643.0,
          642.0,
          643.0,
          643.0,
          641.0,
          642.0,
          642.0,
          643.0,
          644.0,
          643.0,
          643.0,
          643.0,
          643.0,
          645.0,
          646.0,
          642.0,
          642.0,
          645.0,
          643.0,
          644.0,
          643.0,
          644.0,
          643.0,
          643.0,
          643.0,
          643.0,
          644.0,
          646.0,
          643.0,
          642.0,
          641.0,
          642.0,
          642.0,
          643.0,
          645.0,
          642.0,
          641.0,
          641.0,
          641.0,
          642.0,
          643.0,
          642.0,
          642.0,
          642.0,
          644.0,
          644.0,
          643.0,
          644.0,
          643.0,
          642.0,
          643.0,
          643.0,
          644.0,
          643.0,
          644.0,
          645.0,
          640.0,
          640.0,
          642.0,
          643.0,
          645.0,
          646.0,
          645.0,
          646.0,
          644.0,
          641.0,
          641.0,
          644.0,
          642.0,
          644.0,
          644.0,
          644.0,
          646.0,
          646.0,
          647.0,
          646.0,
          647.0,
          647.0,
          644.0,
          641.0,
          641.0,
          642.0,
          642.0,
          644.0,
          644.0,
          644.0,
          646.0,
          645.0,
          645.0,
          645.0,
          644.0,
          644.0,
          645.0,
          644.0,
          647.0,
          645.0,
          643.0,
          644.0,
          645.0,
          646.0,
          641.0,
          641.0,
          642.0,
          643.0,
          644.0,
          643.0,
          646.0,
          642.0,
          642.0,
          645.0,
          643.0,
          645.0,
          643.0,
          643.0,
          643.0,
          646.0,
          643.0,
          643.0,
          644.0,
          644.0,
          644.0,
          645.0,
          646.0,
          643.0,
          643.0,
          643.0,
          645.0,
          644.0,
          647.0,
          644.0,
          643.0,
          643.0,
          644.0,
          645.0
        ],
        "WindowWidth": [
          1372.0,
          1370.0,
