{
  "aor": 0.000697,
  "aqi": 0.0086030924375,
  "bids_meta": {
    "AcquisitionMatrixPE": 64,
    "AcquisitionNumber": 1,
    "AcquisitionTime": "16:22:8.810000",
    "BandwidthPerPixelPhaseEncode": 31.25,
    "BaseResolution": 64,
    "CoilCombinationMethod": "Sum of Squares",
    "CoilString": "C:HEA;HEP",
    "ConversionSoftware": "dcm2niix",
    "ConversionSoftwareVersion": "v1.0.20211006",
    "DerivedVendorReportedEchoSpacing": 0.0005,
    "DeviceSerialNumber": "35377",
    "DwellTime": 3.4e-06,
    "EchoTime": 0.03,
    "EffectiveEchoSpacing": 0.0005,
    "FlipAngle": 90,
    "ImageOrientationPatientDICOM": [
      0.997014,
      -0.0764928,
      0.010596,
      0.076716,
      0.996798,
      -0.0225657
    ],
    "ImageOrientationText": "Tra>Cor(-1.3)>Sag(0.5)",
    "ImageType": [
      "ORIGINAL",
      "PRIMARY",
      "M",
      "ND",
      "MOSAIC"
    ],
    "ImagingFrequency": 123.256,
    "InPlanePhaseEncodingDirectionDICOM": "COL",
    "InstitutionAddress": "Azinhaga Santa Comba StreetNo,Coimbra,District,PT,3000",
    "InstitutionName": "IBILI",
    "InstitutionalDepartmentName": "Department",
    "MRAcquisitionType": "2D",
    "MagneticFieldStrength": 3,
    "Manufacturer": "Siemens",
    "ManufacturersModelName": "TrioTim",
    "MatrixCoilMode": "SENSE",
    "Modality": "MR",
    "PartialFourier": 1,
    "PatientPosition": "HFS",
    "PercentPhaseFOV": 100,
    "PercentSampling": 100,
    "PhaseEncodingDirection": "j-",
    "PhaseEncodingSteps": 64,
    "PhaseResolution": 1,
    "PixelBandwidth": 2298,
    "ProcedureStepDescription": "Unknown",
    "ProtocolName": "rtfmri_neurofeedback_LocDynamicExpressions",
    "PulseSequenceDetails": "%SiemensSeq%\\ep2d_bold",
    "ReceiveCoilName": "HeadMatrix",
    "ReconMatrixPE": 64,
    "RepetitionTime": 2,
    "SAR": 0.17159,
    "ScanOptions": "FS",
    "ScanningSequence": "EP",
    "SequenceName": "*epfid2d1_64",
    "SequenceVariant": "SK",
    "SeriesDescription": "rtfmri_neurofeedback_LocDynamicExpressions",
    "SeriesNumber": 3,
    "ShimSetting": [
      15842,
      7515,
      21329,
      629,
      355,
      -456,
      480,
      -24
    ],
    "SliceThickness": 3,
    "SliceTiming": [
      0,
      1.035,
      0.0625,
      1.095,
      0.1225,
      1.1575,
      0.1825,
      1.2175,
      0.245,
      1.2775,
      0.305,
      1.34,
      0.365,
      1.4,
      0.4275,
      1.46,
      0.4875,
      1.5225,
      0.5475,
      1.5825,
      0.61,
      1.6425,
      0.67,
      1.705,
      0.73,
      1.765,
      0.7925,
      1.825,
      0.8525,
      1.8875,
      0.9125,
      1.9475,
      0.975
    ],
    "SoftwareVersions": "syngo MR B17",
    "SpacingBetweenSlices": 3,
    "StationName": "MRC35377",
    "TaskName": "faceexplocalizer",
    "TotalReadoutTime": 0.0315,
    "TxRefAmp": 385.259,
    "dataset": "ds004141",
    "dcmmeta_affine": [
      [
        -3.9880552291870117,
        0.30686408281326294,
        0.026507752016186714,
        120.48240661621094
      ],
      [
        0.3059711754322052,
        3.9871904850006104,
        -0.06993365287780762,
        -97.48936462402344
      ],
      [
        0.04238386079668999,
        0.09026288241147995,
        2.999067783355713,
        -48.957489013671875
      ],
      [
        0.0,
        0.0,
        0.0,
        1.0
      ]
    ],
    "dcmmeta_reorient_transform": [
      [
        0.0,
        -1.0,
        0.0,
        63.0
      ],
      [
        1.0,
        0.0,
        0.0,
        0.0
      ],
      [
        0.0,
        0.0,
        1.0,
        0.0
      ],
      [
        0.0,
        0.0,
        0.0,
        1.0
      ]
    ],
    "dcmmeta_shape": [
      64,
      64,
      33,
      160
    ],
    "dcmmeta_slice_dim": 2,
    "dcmmeta_version": 0.6,
    "global": {
      "const": {
        "AccessionNumber": "GNF20150313-0549",
        "AcquisitionMatrix": [
          64,
          0,
          0,
          64
        ],
        "Allergies": "MEDALERGIESL",
        "AngioFlag": "N",
        "BitsAllocated": 16,
        "BitsStored": 12,
        "Columns": 384,
        "EchoNumbers": 1,
        "EchoTime": 30.0,
        "EchoTrainLength": 1,
        "FlipAngle": 90.0,
        "HighBit": 11,
        "ImageOrientationPatient": [
          0.99701383062214,
          -0.0764927910112,
          0.0105959648679,
          0.07671602253819,
          0.99679759234945,
          -0.0225657211773
        ],
        "ImagePositionPatient": [
          -827.00194669888,
          -742.69870473732,
          -35.610281963983
        ],
        "ImageType": [
          "ORIGINAL",
          "PRIMARY",
          "M",
          "ND",
          "MOSAIC"
        ],
        "ImagedNucleus": "1H",
        "ImagingFrequency": 123.255616,
        "InPlanePhaseEncodingDirection": "COL",
        "MRAcquisitionType": "2D",
        "MagneticFieldStrength": 3.0,
        "Manufacturer": "SIEMENS",
        "ManufacturerModelName": "TrioTim",
        "MedicalAlerts": "MEDALERTS",
        "Modality": "MR",
        "NumberOfAverages": 1.0,
        "NumberOfPhaseEncodingSteps": 64,
        "PercentPhaseFieldOfView": 100.0,
        "PercentSampling": 100.0,
        "PerformedProcedureStepStartTime": "161045.781000",
        "PhotometricInterpretation": "MONOCHROME2",
        "PixelBandwidth": 2298.0,
        "PixelRepresentation": 0,
        "PixelSpacing": [
          4.0,
          4.0
        ],
        "ProtocolName": "rtfmri_neurofeedback_LocDynamicExpressions",
        "RepetitionTime": 2000.0,
        "RequestAttributesSequence": [
          {
            "RequestedProcedureID": "112b543c-70a8-4e",
            "ScheduledProcedureStepDescription": "Unknown",
            "ScheduledProcedureStepID": "112b543c-70a8-4e"
          }
        ],
        "Rows": 384,
        "SAR": 0.17158952197944,
        "SamplesPerPixel": 1,
        "ScanOptions": "FS",
        "ScanningSequence": "EP",
        "SequenceName": "*epfid2d1_64",
        "SequenceVariant": "SK",
        "SeriesDescription": "rtfmri_neurofeedback_LocDynamicExpressions",
        "SeriesNumber": 3,
        "SeriesTime": "162212.296000",
        "SliceLocation": -45.605104026427,
        "SliceThickness": 3.0,
        "SmallestImagePixelValue": 0,
        "SoftwareVersions": "syngo MR B17",
        "SpacingBetweenSlices": 3.0000000384586,
        "SpecificCharacterSet": "ISO_IR 100",
        "StudyID": "112b543c-70a8-4e",
        "StudyTime": "161045.718000",
        "TransmitCoilName": "Body",
        "VariableFlipAngleFlag": "N",
        "WindowCenterWidthExplanation": "Algo1",
        "dBdt": 0.0
      },
      "slices": {}
    },
    "modality": "bold",
    "run_id": 1,
    "session_id": "01",
    "subject_id": "02",
    "task_id": "faceexplocalizer",
    "time": {
      "samples": {
        "AcquisitionNumber": [
          1,
          2,
          3,
          4,
          5,
          6,
          7,
          8,
          9,
          10,
          11,
          12,
          13,
          14,
          15,
          16,
          17,
          18,
          19,
          20,
          21,
          22,
          23,
          24,
          25,
          26,
          27,
          28,
          29,
          30,
          31,
          32,
          33,
          34,
          35,
          36,
          37,
          38,
          39,
          40,
          41,
          42,
          43,
          44,
          45,
          46,
          47,
          48,
          49,
          50,
          51,
          52,
          53,
          54,
          55,
          56,
          57,
          58,
          59,
          60,
          61,
          62,
          63,
          64,
          65,
          66,
          67,
          68,
          69,
          70,
          71,
          72,
          73,
          74,
          75,
          76,
          77,
          78,
          79,
          80,
          81,
          82,
          83,
          84,
          85,
          86,
          87,
          88,
          89,
          90,
          91,
          92,
          93,
          94,
          95,
          96,
          97,
          98,
          99,
          100,
          101,
          102,
          103,
          104,
          105,
          106,
          107,
          108,
          109,
          110,
          111,
          112,
          113,
          114,
          115,
          116,
          117,
          118,
          119,
          120,
          121,
          122,
          123,
          124,
          125,
          126,
          127,
          128,
          129,
          130,
          131,
          132,
          133,
          134,
          135,
          136,
          137,
          138,
          139,
          140,
          141,
          142,
          143,
          144,
          145,
          146,
          147,
          148,
          149,
          150,
          151,
          152,
          153,
          154,
          155,
          156,
          157,
          158,
          159,
          160
        ],
        "AcquisitionTime": [
          "162208.810000",
          "162210.820000",
          "162212.827500",
          "162214.835000",
          "162216.842500",
          "162218.850000",
          "162220.860000",
          "162222.867500",
          "162224.875000",
          "162226.882500",
          "162228.892500",
          "162230.900000",
          "162232.907500",
          "162234.915000",
          "162236.922500",
          "162238.932500",
          "162240.940000",
          "162242.947500",
          "162244.955000",
          "162246.962500",
          "162248.972500",
          "162250.980000",
          "162252.987500",
          "162254.995000",
          "162257.005000",
          "162259.012500",
          "162301.020000",
          "162303.027500",
          "162305.035000",
          "162307.045000",
          "162309.052500",
          "162311.060000",
          "162313.067500",
          "162315.075000",
          "162317.085000",
          "162319.092500",
          "162321.100000",
          "162323.107500",
          "162325.115000",
          "162327.125000",
          "162329.132500",
          "162331.140000",
          "162333.147500",
          "162335.157500",
          "162337.165000",
          "162339.172500",
          "162341.180000",
          "162343.187500",
          "162345.197500",
          "162347.205000",
          "162349.212500",
          "162351.220000",
          "162353.227500",
          "162355.237500",
          "162357.245000",
          "162359.252500",
          "162401.260000",
          "162403.270000",
          "162405.277500",
          "162407.285000",
          "162409.292500",
          "162411.300000",
          "162413.310000",
          "162415.317500",
          "162417.325000",
          "162419.332500",
          "162421.340000",
          "162423.350000",
          "162425.357500",
          "162427.365000",
          "162429.372500",
          "162431.382500",
          "162433.390000",
          "162435.397500",
          "162437.405000",
          "162439.412500",
          "162441.422500",
          "162443.430000",
          "162445.437500",
          "162447.445000",
          "162449.452500",
          "162451.462500",
          "162453.470000",
          "162455.477500",
          "162457.485000",
          "162459.492500",
          "162501.502500",
          "162503.510000",
          "162505.517500",
          "162507.525000",
          "162509.535000",
          "162511.542500",
          "162513.550000",
          "162515.557500",
          "162517.565000",
          "162519.575000",
          "162521.582500",
          "162523.590000",
          "162525.597500",
          "162527.605000",
          "162529.615000",
          "162531.622500",
          "162533.630000",
          "162535.637500",
          "162537.647500",
          "162539.655000",
          "162541.662500",
          "162543.670000",
          "162545.677500",
          "162547.687500",
          "162549.695000",
          "162551.702500",
          "162553.710000",
          "162555.717500",
          "162557.727500",
          "162559.735000",
          "162601.742500",
          "162603.750000",
          "162605.760000",
          "162607.767500",
          "162609.775000",
          "162611.782500",
          "162613.790000",
          "162615.800000",
          "162617.807500",
          "162619.815000",
          "162621.822500",
          "162623.830000",
          "162625.840000",
          "162627.847500",
          "162629.855000",
          "162631.862500",
          "162633.870000",
          "162635.880000",
          "162637.887500",
          "162639.895000",
          "162641.902500",
          "162643.912500",
          "162645.920000",
          "162647.927500",
          "162649.935000",
          "162651.942500",
          "162653.952500",
          "162655.960000",
          "162657.967500",
          "162659.975000",
          "162701.982500",
          "162703.992500",
          "162706.000000",
          "162708.007500",
          "162710.015000",
          "162712.025000",
          "162714.032500",
          "162716.040000",
          "162718.047500",
          "162720.055000",
          "162722.065000",
          "162724.072500",
          "162726.080000",
          "162728.087500"
        ],
        "ContentTime": [
          "162212.296000",
          "162214.296000",
          "162216.296000",
          "162218.296000",
          "162220.296000",
          "162222.296000",
          "162224.296000",
          "162226.296000",
          "162228.296000",
          "162230.296000",
          "162232.296000",
          "162234.296000",
          "162236.296000",
          "162238.296000",
          "162240.296000",
          "162242.296000",
          "162244.296000",
          "162246.296000",
          "162248.296000",
          "162250.296000",
          "162252.296000",
          "162254.296000",
          "162256.296000",
          "162258.296000",
          "162300.296000",
          "162302.296000",
          "162304.296000",
          "162306.296000",
          "162308.296000",
          "162310.296000",
          "162312.296000",
          "162314.296000",
          "162316.296000",
          "162318.296000",
          "162320.296000",
          "162322.296000",
          "162324.296000",
          "162326.296000",
          "162328.296000",
          "162330.296000",
          "162332.296000",
          "162334.296000",
          "162336.296000",
          "162338.296000",
          "162340.296000",
          "162342.296000",
          "162344.296000",
          "162346.296000",
          "162348.296000",
          "162350.296000",
          "162352.296000",
          "162354.296000",
          "162356.296000",
          "162358.296000",
          "162400.296000",
          "162402.296000",
          "162404.296000",
          "162406.296000",
          "162408.296000",
          "162410.296000",
          "162412.296000",
          "162414.296000",
          "162416.296000",
          "162418.296000",
          "162420.296000",
          "162422.296000",
          "162424.296000",
          "162426.296000",
          "162428.296000",
          "162430.296000",
          "162432.296000",
          "162434.296000",
          "162436.296000",
          "162438.296000",
          "162440.296000",
          "162442.296000",
          "162444.296000",
          "162446.296000",
          "162448.296000",
          "162450.296000",
          "162452.296000",
          "162454.296000",
          "162456.296000",
          "162458.296000",
          "162500.296000",
          "162502.296000",
          "162504.296000",
          "162506.296000",
          "162508.296000",
          "162510.296000",
          "162512.296000",
          "162514.296000",
          "162516.296000",
          "162518.296000",
          "162520.296000",
          "162522.296000",
          "162524.296000",
          "162526.296000",
          "162528.296000",
          "162530.296000",
          "162532.296000",
          "162534.296000",
          "162536.296000",
          "162538.296000",
          "162540.296000",
          "162542.296000",
          "162544.296000",
          "162546.296000",
          "162548.296000",
          "162550.296000",
          "162552.296000",
          "162554.296000",
          "162556.296000",
          "162558.296000",
          "162600.296000",
          "162602.296000",
          "162604.296000",
          "162606.296000",
          "162608.296000",
          "162610.296000",
          "162612.296000",
          "162614.296000",
          "162616.296000",
          "162618.296000",
          "162620.296000",
          "162622.296000",
          "162624.296000",
          "162626.296000",
          "162628.296000",
          "162630.296000",
          "162632.296000",
          "162634.296000",
          "162636.296000",
          "162638.296000",
          "162640.296000",
          "162642.296000",
          "162644.296000",
          "162646.296000",
          "162648.296000",
          "162650.296000",
          "162652.296000",
          "162654.296000",
          "162656.296000",
          "162658.296000",
          "162700.296000",
          "162702.296000",
          "162704.296000",
          "162706.296000",
          "162708.296000",
          "162710.296000",
          "162712.296000",
          "162714.296000",
          "162716.296000",
          "162718.296000",
          "162720.296000",
          "162722.296000",
          "162724.296000",
          "162726.296000",
          "162728.296000",
          "162729.968000"
        ],
        "InstanceCreationTime": [
          "162212.296000",
          "162214.296000",
          "162216.296000",
          "162218.296000",
          "162220.296000",
          "162222.296000",
          "162224.296000",
          "162226.296000",
          "162228.296000",
          "162230.296000",
          "162232.296000",
          "162234.296000",
          "162236.296000",
          "162238.296000",
          "162240.296000",
          "162242.296000",
          "162244.296000",
          "162246.296000",
          "162248.296000",
          "162250.296000",
          "162252.296000",
          "162254.296000",
          "162256.296000",
          "162258.296000",
          "162300.296000",
          "162302.296000",
          "162304.296000",
          "162306.296000",
          "162308.296000",
          "162310.296000",
          "162312.296000",
          "162314.296000",
          "162316.296000",
          "162318.296000",
          "162320.296000",
          "162322.296000",
          "162324.296000",
          "162326.296000",
          "162328.296000",
          "162330.296000",
          "162332.296000",
          "162334.296000",
          "162336.296000",
          "162338.296000",
          "162340.296000",
          "162342.296000",
          "162344.296000",
          "162346.296000",
          "162348.296000",
          "162350.296000",
          "162352.296000",
          "162354.296000",
          "162356.296000",
          "162358.296000",
          "162400.296000",
          "162402.296000",
          "162404.296000",
          "162406.296000",
          "162408.296000",
          "162410.296000",
          "162412.296000",
          "162414.296000",
          "162416.296000",
          "162418.296000",
          "162420.296000",
          "162422.296000",
          "162424.296000",
          "162426.296000",
          "162428.296000",
          "162430.296000",
          "162432.296000",
          "162434.296000",
          "162436.296000",
          "162438.296000",
          "162440.296000",
          "162442.296000",
          "162444.296000",
          "162446.296000",
          "162448.296000",
          "162450.296000",
          "162452.296000",
          "162454.296000",
          "162456.296000",
          "162458.296000",
          "162500.296000",
          "162502.296000",
          "162504.296000",
          "162506.296000",
          "162508.296000",
          "162510.296000",
          "162512.296000",
          "162514.296000",
          "162516.296000",
          "162518.296000",
          "162520.296000",
          "162522.296000",
          "162524.296000",
          "162526.296000",
          "162528.296000",
          "162530.296000",
          "162532.296000",
          "162534.296000",
          "162536.296000",
          "162538.296000",
          "162540.296000",
          "162542.296000",
          "162544.296000",
          "162546.296000",
          "162548.296000",
          "162550.296000",
          "162552.296000",
          "162554.296000",
          "162556.296000",
          "162558.296000",
          "162600.296000",
          "162602.296000",
          "162604.296000",
          "162606.296000",
          "162608.296000",
          "162610.296000",
          "162612.296000",
          "162614.296000",
          "162616.296000",
          "162618.296000",
          "162620.296000",
          "162622.296000",
          "162624.296000",
          "162626.296000",
          "162628.296000",
          "162630.296000",
          "162632.296000",
          "162634.296000",
          "162636.296000",
          "162638.296000",
          "162640.296000",
          "162642.296000",
          "162644.296000",
          "162646.296000",
          "162648.296000",
          "162650.296000",
          "162652.296000",
          "162654.296000",
          "162656.296000",
          "162658.296000",
          "162700.296000",
          "162702.296000",
          "162704.296000",
          "162706.296000",
          "162708.296000",
          "162710.296000",
          "162712.296000",
          "162714.296000",
          "162716.296000",
          "162718.296000",
          "162720.296000",
          "162722.296000",
          "162724.296000",
          "162726.296000",
          "162728.296000",
          "162729.968000"
        ],
        "InstanceNumber": [
          1,
          2,
          3,
          4,
          5,
          6,
          7,
          8,
          9,
          10,
          11,
          12,
          13,
          14,
          15,
          16,
          17,
          18,
          19,
          20,
          21,
          22,
          23,
          24,
          25,
          26,
          27,
          28,
          29,
          30,
          31,
          32,
          33,
          34,
          35,
          36,
          37,
          38,
          39,
          40,
          41,
          42,
          43,
          44,
          45,
          46,
          47,
          48,
          49,
          50,
          51,
          52,
          53,
          54,
          55,
          56,
          57,
          58,
          59,
          60,
          61,
          62,
          63,
          64,
          65,
          66,
          67,
          68,
          69,
          70,
          71,
          72,
          73,
          74,
          75,
          76,
          77,
          78,
          79,
          80,
          81,
          82,
          83,
          84,
          85,
          86,
          87,
          88,
          89,
          90,
          91,
          92,
          93,
          94,
          95,
          96,
          97,
          98,
          99,
          100,
          101,
          102,
          103,
          104,
          105,
          106,
          107,
          108,
          109,
          110,
          111,
          112,
          113,
          114,
          115,
          116,
          117,
          118,
          119,
          120,
          121,
          122,
          123,
          124,
          125,
          126,
          127,
          128,
          129,
          130,
          131,
          132,
          133,
          134,
          135,
          136,
          137,
          138,
          139,
          140,
          141,
          142,
          143,
          144,
          145,
          146,
          147,
          148,
          149,
          150,
          151,
          152,
          153,
          154,
          155,
          156,
          157,
          158,
          159,
          160
        ],
        "LargestImagePixelValue": [
          1607,
          1564,
          1561,
          1546,
          1558,
          1550,
          1538,
          1536,
          1527,
          1524,
          1544,
          1544,
          1557,
          1532,
          1556,
          1547,
          1544,
          1540,
          1545,
          1521,
          1556,
          1548,
          1525,
          1537,
          1530,
          1525,
          1531,
          1516,
          1530,
          1531,
          1530,
          1524,
          1544,
          1538,
          1538,
          1535,
          1533,
          1537,
          1540,
          1548,
          1530,
          1537,
          1535,
          1543,
          1525,
          1528,
          1537,
          1526,
          1529,
          1537,
          1525,
          1522,
          1521,
          1526,
          1524,
          1522,
          1533,
          1533,
          1528,
          1517,
          1514,
          1532,
          1534,
          1535,
          1531,
          1528,
          1523,
          1516,
          1526,
          1523,
          1516,
          1527,
          1532,
          1533,
          1519,
          1515,
          1533,
          1540,
          1536,
          1533,
          1532,
          1532,
          1532,
          1524,
          1542,
          1522,
          1533,
          1537,
          1524,
          1515,
          1534,
          1542,
          1523,
          1528,
          1525,
          1537,
          1544,
          1531,
          1527,
          1522,
          1525,
          1538,
          1543,
          1539,
          1532,
          1551,
          1541,
          1531,
          1544,
          1531,
          1531,
          1531,
          1526,
          1543,
          1547,
          1542,
          1550,
          1534,
          1537,
          1518,
          1523,
          1538,
          1539,
          1540,
          1550,
          1536,
          1531,
          1517,
          1528,
          1547,
          1542,
          1546,
          1539,
          1530,
          1540,
          1532,
          1537,
          1536,
          1539,
          1542,
          1544,
          1554,
          1533,
          1535,
          1552,
          1543,
          1556,
          1549,
          1558,
          1546,
          1541,
          1548,
          1541,
          1548,
          1533,
          1553,
          1533,
          1551,
          1542,
          1543
        ],
        "WindowCenter": [
          660.0,
          659.0,
          657.0,
          658.0,
          658.0,
          658.0,
          657.0,
          656.0,
          658.0,
          658.0,
          657.0,
          656.0,
          657.0,
          658.0,
          657.0,
          656.0,
          656.0,
          655.0,
          657.0,
          659.0,
          657.0,
          658.0,
          657.0,
          656.0,
          655.0,
          656.0,
          655.0,
          654.0,
          654.0,
          654.0,
          655.0,
          655.0,
          657.0,
          656.0,
          657.0,
          656.0,
          656.0,
          656.0,
          658.0,
          658.0,
          658.0,
          657.0,
          658.0,
          658.0,
          656.0,
          657.0,
          657.0,
          656.0,
          658.0,
          658.0,
          656.0,
          656.0,
          657.0,
          657.0,
          656.0,
          656.0,
          656.0,
          656.0,
          655.0,
          658.0,
          657.0,
          657.0,
          657.0,
          656.0,
          657.0,
          658.0,
          657.0,
          657.0,
          657.0,
          658.0,
          657.0,
          657.0,
          656.0,
          656.0,
          658.0,
          657.0,
          656.0,
          657.0,
          658.0,
          658.0,
          657.0,
          658.0,
          657.0,
          656.0,
          657.0,
          656.0,
          657.0,
          657.0,
          656.0,
          656.0,
          657.0,
          659.0,
          658.0,
          658.0,
          658.0,
          657.0,
          656.0,
          656.0,
          656.0,
          656.0,
          657.0,
          658.0,
          657.0,
          658.0,
          659.0,
          660.0,
          658.0,
          658.0,
          659.0,
          658.0,
          657.0,
          657.0,
          657.0,
          658.0,
          659.0,
          659.0,
          659.0,
          658.0,
          658.0,
          658.0,
          657.0,
          657.0,
          658.0,
          657.0,
          657.0,
          659.0,
          660.0,
          658.0,
          658.0,
          659.0,
          657.0,
          657.0,
          657.0,
          656.0,
          657.0,
          657.0,
          656.0,
          657.0,
          658.0,
          659.0,
          657.0,
          657.0,
          656.0,
          657.0,
          659.0,
          658.0,
          657.0,
          658.0,
          659.0,
          658.0,
          659.0,
          659.0,
          657.0,
          657.0,
          658.0,
          658.0,
          657.0,
          657.0,
          658.0,
          658.0
        ],
        "WindowWidth": [
          1415.0,
          1410.0,
