{
  "aor": 0.0005283124999999999,
  "aqi": 0.0048447798125,
  "bids_meta": {
    "AcquisitionMatrixPE": 64,
    "AcquisitionNumber": 1,
    "AcquisitionTime": "11:44:27.760000",
    "BandwidthPerPixelPhaseEncode": 31.25,
    "BaseResolution": 64,
    "CoilCombinationMethod": "Sum of Squares",
    "CoilString": "C:HEA;HEP",
    "ConversionSoftware": "dcm2niix",
    "ConversionSoftwareVersion": "v1.0.20211006",
    "DerivedVendorReportedEchoSpacing": 0.0005,
    "DeviceSerialNumber": "35377",
    "DwellTime": 3.4e-06,
    "EchoTime": 0.03,
    "EffectiveEchoSpacing": 0.0005,
    "FlipAngle": 90,
    "ImageOrientationPatientDICOM": [
      0.998079,
      0.0607862,
      -0.0119756,
      -0.0610452,
      0.997879,
      -0.0226005
    ],
    "ImageOrientationText": "Tra>Cor(-1.3)>Sag(-0.6)",
    "ImageType": [
      "ORIGINAL",
      "PRIMARY",
      "M",
      "ND",
      "MOSAIC"
    ],
    "ImagingFrequency": 123.256,
    "InPlanePhaseEncodingDirectionDICOM": "COL",
    "InstitutionAddress": "Azinhaga Santa Comba StreetNo,Coimbra,District,PT,3000",
    "InstitutionName": "ICNAS",
    "InstitutionalDepartmentName": "Department",
    "MRAcquisitionType": "2D",
    "MagneticFieldStrength": 3,
    "Manufacturer": "Siemens",
    "ManufacturersModelName": "TrioTim",
    "MatrixCoilMode": "SENSE",
    "Modality": "MR",
    "PartialFourier": 1,
    "PatientPosition": "HFS",
    "PercentPhaseFOV": 100,
    "PercentSampling": 100,
    "PhaseEncodingDirection": "j-",
    "PhaseEncodingSteps": 64,
    "PhaseResolution": 1,
    "PixelBandwidth": 2298,
    "ProcedureStepDescription": "Unknown",
    "ProtocolName": "rtfmri_neurofeedback_LocDynamicExpressions",
    "PulseSequenceDetails": "%SiemensSeq%\\ep2d_bold",
    "ReceiveCoilName": "HeadMatrix",
    "ReconMatrixPE": 64,
    "RepetitionTime": 2,
    "SAR": 0.205705,
    "ScanOptions": "FS",
    "ScanningSequence": "EP",
    "SequenceName": "*epfid2d1_64",
    "SequenceVariant": "SK",
    "SeriesDescription": "rtfmri_neurofeedback_LocDynamicExpressions",
    "SeriesNumber": 3,
    "ShimSetting": [
      15847,
      7566,
      21229,
      501,
      327,
      108,
      -51,
      46
    ],
    "SliceThickness": 3,
    "SliceTiming": [
      0,
      1.0325,
      0.06,
      1.095,
      0.12,
      1.155,
      0.1825,
      1.215,
      0.2425,
      1.2775,
      0.3025,
      1.3375,
      0.365,
      1.3975,
      0.425,
      1.46,
      0.485,
      1.52,
      0.5475,
      1.58,
      0.6075,
      1.6425,
      0.6675,
      1.7025,
      0.73,
      1.7625,
      0.79,
      1.825,
      0.85,
      1.885,
      0.9125,
      1.945,
      0.9725
    ],
    "SoftwareVersions": "syngo MR B17",
    "SpacingBetweenSlices": 3,
    "StationName": "MRC35377",
    "TaskName": "faceexplocalizer",
    "TotalReadoutTime": 0.0315,
    "TxRefAmp": 388.315,
    "dataset": "ds004141",
    "dcmmeta_affine": [
      [
        -3.9923157691955566,
        -0.24418073892593384,
        -0.03172919526696205,
        135.73117065429688
      ],
      [
        -0.24314472079277039,
        3.991516351699829,
        -0.06986451894044876,
        -87.33373260498047
      ],
      [
        -0.04790239408612251,
        0.09040214866399765,
        2.999018430709839,
        -71.18346405029297
      ],
      [
        0.0,
        0.0,
        0.0,
        1.0
      ]
    ],
    "dcmmeta_reorient_transform": [
      [
        0.0,
        -1.0,
        0.0,
        63.0
      ],
      [
        1.0,
        0.0,
        0.0,
        0.0
      ],
      [
        0.0,
        0.0,
        1.0,
        0.0
      ],
      [
        0.0,
        0.0,
        0.0,
        1.0
      ]
    ],
    "dcmmeta_shape": [
      64,
      64,
      33,
      160
    ],
    "dcmmeta_slice_dim": 2,
    "dcmmeta_version": 0.6,
    "global": {
      "const": {
        "AccessionNumber": "MRS20150331-0824",
        "AcquisitionMatrix": [
          64,
          0,
          0,
          64
        ],
        "Allergies": "MEDALERGIESL",
        "AngioFlag": "N",
        "BitsAllocated": 16,
        "BitsStored": 12,
        "Columns": 384,
        "EchoNumbers": 1,
        "EchoTime": 30.0,
        "EchoTrainLength": 1,
        "FlipAngle": 90.0,
        "HighBit": 11,
        "ImageOrientationPatient": [
          0.99807896739126,
          0.06078618174252,
          -0.0119755985385,
          -0.0610451851763,
          0.9978791014208,
          -0.022600537923
        ],
        "ImagePositionPatient": [
          -720.04940021524,
          -841.67758380122,
          -43.359398962686
        ],
        "ImageType": [
          "ORIGINAL",
          "PRIMARY",
          "M",
          "ND",
          "MOSAIC"
        ],
        "ImagedNucleus": "1H",
        "ImagingFrequency": 123.255637,
        "InPlanePhaseEncodingDirection": "COL",
        "MRAcquisitionType": "2D",
        "MagneticFieldStrength": 3.0,
        "Manufacturer": "SIEMENS",
        "ManufacturerModelName": "TrioTim",
        "MedicalAlerts": "MEDALERTS",
        "Modality": "MR",
        "NumberOfAverages": 1.0,
        "NumberOfPhaseEncodingSteps": 64,
        "PercentPhaseFieldOfView": 100.0,
        "PercentSampling": 100.0,
        "PerformedProcedureStepStartTime": "113441.421000",
        "PhotometricInterpretation": "MONOCHROME2",
        "PixelBandwidth": 2298.0,
        "PixelRepresentation": 0,
        "PixelSpacing": [
          4.0,
          4.0
        ],
        "ProtocolName": "rtfmri_neurofeedback_LocDynamicExpressions",
        "RepetitionTime": 2000.0,
        "RequestAttributesSequence": [
          {
            "RequestedProcedureID": "36691848-2942-46",
            "ScheduledProcedureStepDescription": "Unknown",
            "ScheduledProcedureStepID": "36691848-2942-46"
          }
        ],
        "Rows": 384,
        "SAR": 0.20570498850562,
        "SamplesPerPixel": 1,
        "ScanOptions": "FS",
        "ScanningSequence": "EP",
        "SequenceName": "*epfid2d1_64",
        "SequenceVariant": "SK",
        "SeriesDescription": "rtfmri_neurofeedback_LocDynamicExpressions",
        "SeriesNumber": 3,
        "SeriesTime": "114430.687000",
        "SliceLocation": -70.561877806689,
        "SliceThickness": 3.0,
        "SmallestImagePixelValue": 0,
        "SoftwareVersions": "syngo MR B17",
        "SpacingBetweenSlices": 2.9999998899718,
        "SpecificCharacterSet": "ISO_IR 100",
        "StudyID": "36691848-2942-46",
        "StudyTime": "113440.875000",
        "TransmitCoilName": "Body",
        "VariableFlipAngleFlag": "N",
        "WindowCenterWidthExplanation": "Algo1",
        "dBdt": 0.0
      },
      "slices": {}
    },
    "modality": "bold",
    "run_id": 1,
    "session_id": "01",
    "subject_id": "06",
    "task_id": "faceexplocalizer",
    "time": {
      "samples": {
        "AcquisitionNumber": [
          1,
          2,
          3,
          4,
          5,
          6,
          7,
          8,
          9,
          10,
          11,
          12,
          13,
          14,
          15,
          16,
          17,
          18,
          19,
          20,
          21,
          22,
          23,
          24,
          25,
          26,
          27,
          28,
          29,
          30,
          31,
          32,
          33,
          34,
          35,
          36,
          37,
          38,
          39,
          40,
          41,
          42,
          43,
          44,
          45,
          46,
          47,
          48,
          49,
          50,
          51,
          52,
          53,
          54,
          55,
          56,
          57,
          58,
          59,
          60,
          61,
          62,
          63,
          64,
          65,
          66,
          67,
          68,
          69,
          70,
          71,
          72,
          73,
          74,
          75,
          76,
          77,
          78,
          79,
          80,
          81,
          82,
          83,
          84,
          85,
          86,
          87,
          88,
          89,
          90,
          91,
          92,
          93,
          94,
          95,
          96,
          97,
          98,
          99,
          100,
          101,
          102,
          103,
          104,
          105,
          106,
          107,
          108,
          109,
          110,
          111,
          112,
          113,
          114,
          115,
          116,
          117,
          118,
          119,
          120,
          121,
          122,
          123,
          124,
          125,
          126,
          127,
          128,
          129,
          130,
          131,
          132,
          133,
          134,
          135,
          136,
          137,
          138,
          139,
          140,
          141,
          142,
          143,
          144,
          145,
          146,
          147,
          148,
          149,
          150,
          151,
          152,
          153,
          154,
          155,
          156,
          157,
          158,
          159,
          160
        ],
        "AcquisitionTime": [
          "114427.760000",
          "114429.767500",
          "114431.775000",
          "114433.782500",
          "114435.792500",
          "114437.800000",
          "114439.807500",
          "114441.815000",
          "114443.822500",
          "114445.832500",
          "114447.840000",
          "114449.847500",
          "114451.855000",
          "114453.862500",
          "114455.872500",
          "114457.880000",
          "114459.887500",
          "114501.895000",
          "114503.905000",
          "114505.912500",
          "114507.920000",
          "114509.927500",
          "114511.935000",
          "114513.945000",
          "114515.952500",
          "114517.960000",
          "114519.967500",
          "114521.975000",
          "114523.985000",
          "114525.992500",
          "114528.000000",
          "114530.007500",
          "114532.017500",
          "114534.025000",
          "114536.032500",
          "114538.040000",
          "114540.047500",
          "114542.057500",
          "114544.065000",
          "114546.072500",
          "114548.080000",
          "114550.087500",
          "114552.097500",
          "114554.105000",
          "114556.112500",
          "114558.120000",
          "114600.130000",
          "114602.137500",
          "114604.145000",
          "114606.152500",
          "114608.160000",
          "114610.170000",
          "114612.177500",
          "114614.185000",
          "114616.192500",
          "114618.200000",
          "114620.210000",
          "114622.217500",
          "114624.225000",
          "114626.232500",
          "114628.242500",
          "114630.250000",
          "114632.257500",
          "114634.265000",
          "114636.272500",
          "114638.282500",
          "114640.290000",
          "114642.297500",
          "114644.305000",
          "114646.312500",
          "114648.322500",
          "114650.330000",
          "114652.337500",
          "114654.345000",
          "114656.352500",
          "114658.362500",
          "114700.370000",
          "114702.377500",
          "114704.385000",
          "114706.395000",
          "114708.402500",
          "114710.410000",
          "114712.417500",
          "114714.425000",
          "114716.435000",
          "114718.442500",
          "114720.450000",
          "114722.457500",
          "114724.465000",
          "114726.475000",
          "114728.482500",
          "114730.490000",
          "114732.497500",
          "114734.507500",
          "114736.515000",
          "114738.522500",
          "114740.530000",
          "114742.537500",
          "114744.547500",
          "114746.555000",
          "114748.562500",
          "114750.570000",
          "114752.577500",
          "114754.587500",
          "114756.595000",
          "114758.602500",
          "114800.610000",
          "114802.620000",
          "114804.627500",
          "114806.635000",
          "114808.642500",
          "114810.650000",
          "114812.660000",
          "114814.667500",
          "114816.675000",
          "114818.682500",
          "114820.690000",
          "114822.700000",
          "114824.707500",
          "114826.715000",
          "114828.722500",
          "114830.730000",
          "114832.740000",
          "114834.747500",
          "114836.755000",
          "114838.762500",
          "114840.772500",
          "114842.780000",
          "114844.787500",
          "114846.795000",
          "114848.802500",
          "114850.812500",
          "114852.820000",
          "114854.827500",
          "114856.835000",
          "114858.842500",
          "114900.852500",
          "114902.860000",
          "114904.867500",
          "114906.875000",
          "114908.885000",
          "114910.892500",
          "114912.900000",
          "114914.907500",
          "114916.915000",
          "114918.925000",
          "114920.932500",
          "114922.940000",
          "114924.947500",
          "114926.955000",
          "114928.965000",
          "114930.972500",
          "114932.980000",
          "114934.987500",
          "114936.997500",
          "114939.005000",
          "114941.012500",
          "114943.020000",
          "114945.027500",
          "114947.037500"
        ],
        "ContentTime": [
          "114430.703000",
          "114432.687000",
          "114434.687000",
          "114436.687000",
          "114438.687000",
          "114440.687000",
          "114442.687000",
          "114444.687000",
          "114446.687000",
          "114448.687000",
          "114450.687000",
          "114452.687000",
          "114454.687000",
          "114456.687000",
          "114458.687000",
          "114500.687000",
          "114502.687000",
          "114504.687000",
          "114506.687000",
          "114508.687000",
          "114510.687000",
          "114512.687000",
          "114514.687000",
          "114516.687000",
          "114518.687000",
          "114520.687000",
          "114522.687000",
          "114524.687000",
          "114526.687000",
          "114528.687000",
          "114530.687000",
          "114532.687000",
          "114534.687000",
          "114536.687000",
          "114538.687000",
          "114540.687000",
          "114542.687000",
          "114544.687000",
          "114546.687000",
          "114548.687000",
          "114550.687000",
          "114552.687000",
          "114554.687000",
          "114556.687000",
          "114558.687000",
          "114600.687000",
          "114602.687000",
          "114604.687000",
          "114606.687000",
          "114608.687000",
          "114610.687000",
          "114612.687000",
          "114614.687000",
          "114616.687000",
          "114618.687000",
          "114620.687000",
          "114622.687000",
          "114624.687000",
          "114626.687000",
          "114628.687000",
          "114630.687000",
          "114632.687000",
          "114634.687000",
          "114636.687000",
          "114638.687000",
          "114640.687000",
          "114642.687000",
          "114644.687000",
          "114646.687000",
          "114648.687000",
          "114650.687000",
          "114652.687000",
          "114654.687000",
          "114656.687000",
          "114658.687000",
          "114700.687000",
          "114702.687000",
          "114704.687000",
          "114706.687000",
          "114708.687000",
          "114710.687000",
          "114712.687000",
          "114714.687000",
          "114716.687000",
          "114718.687000",
          "114720.687000",
          "114722.687000",
          "114724.687000",
          "114726.687000",
          "114728.687000",
          "114730.687000",
          "114732.687000",
          "114734.687000",
          "114736.687000",
          "114738.687000",
          "114740.687000",
          "114742.687000",
          "114744.687000",
          "114746.687000",
          "114748.687000",
          "114750.687000",
          "114752.687000",
          "114754.687000",
          "114756.687000",
          "114758.687000",
          "114800.687000",
          "114802.687000",
          "114804.687000",
          "114806.687000",
          "114808.687000",
          "114810.687000",
          "114812.687000",
          "114814.687000",
          "114816.687000",
          "114818.687000",
          "114820.687000",
          "114822.687000",
          "114824.687000",
          "114826.687000",
          "114828.687000",
          "114830.687000",
          "114832.687000",
          "114834.687000",
          "114836.687000",
          "114838.687000",
          "114840.687000",
          "114842.687000",
          "114844.687000",
          "114846.687000",
          "114848.687000",
          "114850.687000",
          "114852.687000",
          "114854.687000",
          "114856.687000",
          "114858.687000",
          "114900.687000",
          "114902.687000",
          "114904.687000",
          "114906.687000",
          "114908.687000",
          "114910.687000",
          "114912.687000",
          "114914.687000",
          "114916.687000",
          "114918.687000",
          "114920.687000",
          "114922.687000",
          "114924.687000",
          "114926.687000",
          "114928.687000",
          "114930.687000",
          "114932.687000",
          "114934.687000",
          "114936.687000",
          "114938.687000",
          "114940.687000",
          "114942.687000",
          "114944.687000",
          "114946.687000",
          "114948.312000"
        ],
        "InstanceCreationTime": [
          "114430.703000",
          "114432.687000",
          "114434.687000",
          "114436.687000",
          "114438.687000",
          "114440.687000",
          "114442.687000",
          "114444.687000",
          "114446.687000",
          "114448.687000",
          "114450.687000",
          "114452.687000",
          "114454.687000",
          "114456.687000",
          "114458.687000",
          "114500.687000",
          "114502.687000",
          "114504.687000",
          "114506.687000",
          "114508.687000",
          "114510.687000",
          "114512.687000",
          "114514.687000",
          "114516.687000",
          "114518.687000",
          "114520.687000",
          "114522.687000",
          "114524.687000",
          "114526.687000",
          "114528.687000",
          "114530.687000",
          "114532.687000",
          "114534.687000",
          "114536.687000",
          "114538.687000",
          "114540.687000",
          "114542.687000",
          "114544.687000",
          "114546.687000",
          "114548.687000",
          "114550.687000",
          "114552.687000",
          "114554.687000",
          "114556.687000",
          "114558.687000",
          "114600.687000",
          "114602.687000",
          "114604.687000",
          "114606.687000",
          "114608.687000",
          "114610.687000",
          "114612.687000",
          "114614.687000",
          "114616.687000",
          "114618.687000",
          "114620.687000",
          "114622.687000",
          "114624.687000",
          "114626.687000",
          "114628.687000",
          "114630.687000",
          "114632.687000",
          "114634.687000",
          "114636.687000",
          "114638.687000",
          "114640.687000",
          "114642.687000",
          "114644.687000",
          "114646.687000",
          "114648.687000",
          "114650.687000",
          "114652.687000",
          "114654.687000",
          "114656.687000",
          "114658.687000",
          "114700.687000",
          "114702.687000",
          "114704.687000",
          "114706.687000",
          "114708.687000",
          "114710.687000",
          "114712.687000",
          "114714.687000",
          "114716.687000",
          "114718.687000",
          "114720.687000",
          "114722.687000",
          "114724.687000",
          "114726.687000",
          "114728.687000",
          "114730.687000",
          "114732.687000",
          "114734.687000",
          "114736.687000",
          "114738.687000",
          "114740.687000",
          "114742.687000",
          "114744.687000",
          "114746.687000",
          "114748.687000",
          "114750.687000",
          "114752.687000",
          "114754.687000",
          "114756.687000",
          "114758.687000",
          "114800.687000",
          "114802.687000",
          "114804.687000",
          "114806.687000",
          "114808.687000",
          "114810.687000",
          "114812.687000",
          "114814.687000",
          "114816.687000",
          "114818.687000",
          "114820.687000",
          "114822.687000",
          "114824.687000",
          "114826.687000",
          "114828.687000",
          "114830.687000",
          "114832.687000",
          "114834.687000",
          "114836.687000",
          "114838.687000",
          "114840.687000",
          "114842.687000",
          "114844.687000",
          "114846.687000",
          "114848.687000",
          "114850.687000",
          "114852.687000",
          "114854.687000",
          "114856.687000",
          "114858.687000",
          "114900.687000",
          "114902.687000",
          "114904.687000",
          "114906.687000",
          "114908.687000",
          "114910.687000",
          "114912.687000",
          "114914.687000",
          "114916.687000",
          "114918.687000",
          "114920.687000",
          "114922.687000",
          "114924.687000",
          "114926.687000",
          "114928.687000",
          "114930.687000",
          "114932.687000",
          "114934.687000",
          "114936.687000",
          "114938.687000",
          "114940.687000",
          "114942.687000",
          "114944.687000",
          "114946.687000",
          "114948.312000"
        ],
        "InstanceNumber": [
          1,
          2,
          3,
          4,
          5,
          6,
          7,
          8,
          9,
          10,
          11,
          12,
          13,
          14,
          15,
          16,
          17,
          18,
          19,
          20,
          21,
          22,
          23,
          24,
          25,
          26,
          27,
          28,
          29,
          30,
          31,
          32,
          33,
          34,
          35,
          36,
          37,
          38,
          39,
          40,
          41,
          42,
          43,
          44,
          45,
          46,
          47,
          48,
          49,
          50,
          51,
          52,
          53,
          54,
          55,
          56,
          57,
          58,
          59,
          60,
          61,
          62,
          63,
          64,
          65,
          66,
          67,
          68,
          69,
          70,
          71,
          72,
          73,
          74,
          75,
          76,
          77,
          78,
          79,
          80,
          81,
          82,
          83,
          84,
          85,
          86,
          87,
          88,
          89,
          90,
          91,
          92,
          93,
          94,
          95,
          96,
          97,
          98,
          99,
          100,
          101,
          102,
          103,
          104,
          105,
          106,
          107,
          108,
          109,
          110,
          111,
          112,
          113,
          114,
          115,
          116,
          117,
          118,
          119,
          120,
          121,
          122,
          123,
          124,
          125,
          126,
          127,
          128,
          129,
          130,
          131,
          132,
          133,
          134,
          135,
          136,
          137,
          138,
          139,
          140,
          141,
          142,
          143,
          144,
          145,
          146,
          147,
          148,
          149,
          150,
          151,
          152,
          153,
          154,
          155,
          156,
          157,
          158,
          159,
          160
        ],
        "LargestImagePixelValue": [
          1422,
          1452,
          1458,
          1432,
          1471,
          1473,
          1428,
          1443,
          1460,
          1537,
          1459,
          1560,
          1446,
          1494,
          1519,
          1411,
          1385,
          1414,
          1557,
          1501,
          1545,
          1426,
          1523,
          1459,
          1499,
          1485,
          1482,
          1404,
          1556,
          1381,
          1490,
          1382,
          1405,
          1403,
          1436,
          1447,
          1579,
          1516,
          1499,
          1517,
          1514,
          1566,
          1565,
          1572,
          1557,
          1489,
          1561,
          1395,
          1408,
          1378,
          1407,
          1411,
          1566,
          1392,
          1451,
          1509,
          1501,
          1439,
          1427,
          1392,
          1415,
          1375,
          1404,
          1401,
          1520,
          1443,
          1474,
          1467,
          1508,
          1518,
          1590,
          1373,
          1435,
          1393,
          1374,
          1459,
          1389,
          1386,
          1495,
          1417,
          1523,
          1506,
          1533,
          1381,
          1507,
          1474,
          1475,
          1511,
          1538,
          1517,
          1563,
          1400,
          1410,
          1490,
          1526,
          1415,
          1452,
          1463,
          1432,
          1516,
          1548,
          1535,
          1441,
          1397,
          1462,
          1480,
          1439,
          1384,
          1427,
          1385,
          1494,
          1398,
          1489,
          1395,
          1556,
          1378,
          1495,
          1384,
          1473,
          1384,
          1529,
          1394,
          1377,
          1584,
          1511,
          1493,
          1437,
          1445,
          1379,
          1399,
          1393,
          1393,
          1392,
          1435,
          1482,
          1392,
          1409,
          1405,
          1440,
          1432,
          1455,
          1435,
          1404,
          1432,
          1397,
          1411,
          1535,
          1426,
          1460,
          1417,
          1392,
          1411,
          1414,
          1511,
          1431,
          1405,
          1413,
          1406,
          1400,
          1495
        ],
        "WindowCenter": [
          628.0,
          628.0,
          628.0,
          628.0,
          628.0,
          628.0,
          627.0,
          627.0,
          627.0,
          629.0,
          628.0,
          629.0,
          627.0,
          628.0,
          628.0,
          627.0,
          627.0,
          627.0,
          629.0,
          628.0,
          629.0,
          627.0,
          628.0,
          627.0,
          628.0,
          628.0,
          628.0,
          627.0,
          629.0,
          627.0,
          628.0,
          627.0,
          627.0,
          628.0,
          628.0,
          628.0,
          629.0,
          628.0,
          628.0,
          629.0,
          629.0,
          630.0,
          629.0,
          630.0,
          629.0,
          629.0,
          629.0,
          627.0,
          627.0,
          627.0,
          627.0,
          628.0,
          629.0,
          628.0,
          628.0,
          628.0,
          628.0,
          627.0,
          627.0,
          627.0,
          627.0,
          626.0,
          627.0,
          627.0,
          629.0,
          627.0,
          628.0,
          627.0,
          628.0,
          628.0,
          629.0,
          627.0,
          628.0,
          627.0,
          627.0,
          627.0,
          627.0,
          626.0,
          628.0,
          628.0,
          629.0,
          629.0,
          629.0,
          627.0,
          628.0,
          627.0,
          628.0,
          629.0,
          628.0,
          629.0,
          629.0,
          628.0,
          628.0,
          628.0,
          629.0,
          628.0,
          628.0,
          628.0,
          628.0,
          629.0,
          629.0,
          629.0,
          628.0,
          628.0,
          628.0,
          628.0,
          628.0,
          627.0,
          627.0,
          627.0,
          628.0,
          627.0,
          628.0,
          627.0,
          629.0,
          627.0,
          628.0,
          627.0,
          628.0,
          627.0,
          628.0,
          628.0,
          628.0,
          630.0,
          628.0,
          628.0,
          627.0,
          628.0,
          627.0,
          627.0,
          627.0,
          627.0,
          627.0,
          628.0,
          628.0,
          628.0,
          628.0,
          628.0,
          628.0,
          628.0,
          629.0,
          628.0,
          627.0,
          628.0,
          628.0,
          629.0,
          629.0,
          628.0,
          628.0,
          628.0,
          627.0,
          627.0,
          628.0,
          629.0,
          628.0,
          627.0,
          628.0,
          627.0,
          627.0,
          628.0
        ],
        "WindowWidth": [
          1338.0,
