{
  "aor": 0.0037188679245283014,
  "aqi": 0.006526220188679246,
  "bids_meta": {
    "AcquisitionMatrixPE": 64,
    "AcquisitionNumber": 1,
    "AcquisitionTime": "14:15:50.760000",
    "BandwidthPerPixelPhaseEncode": 31.25,
    "BaseResolution": 64,
    "CoilCombinationMethod": "Sum of Squares",
    "CoilString": "C:HEA;HEP",
    "ConversionSoftware": "dcm2niix",
    "ConversionSoftwareVersion": "v1.0.20211006",
    "DerivedVendorReportedEchoSpacing": 0.0005,
    "DeviceSerialNumber": "35377",
    "DwellTime": 3.4e-06,
    "EchoTime": 0.03,
    "EffectiveEchoSpacing": 0.0005,
    "FlipAngle": 90,
    "ImageOrientationPatientDICOM": [
      0.999877,
      0.0157096,
      6.84068e-05,
      -0.0157073,
      0.999631,
      0.0221816
    ],
    "ImageOrientationText": "Tra>Cor(1.3)>Sag(-0.0)",
    "ImageType": [
      "ORIGINAL",
      "PRIMARY",
      "M",
      "ND",
      "MOSAIC"
    ],
    "ImagingFrequency": 123.256,
    "InPlanePhaseEncodingDirectionDICOM": "COL",
    "InstitutionAddress": "Azinhaga Santa Comba StreetNo,Coimbra,District,PT,3000",
    "InstitutionName": "IBILI",
    "InstitutionalDepartmentName": "Department",
    "MRAcquisitionType": "2D",
    "MagneticFieldStrength": 3,
    "Manufacturer": "Siemens",
    "ManufacturersModelName": "TrioTim",
    "MatrixCoilMode": "SENSE",
    "Modality": "MR",
    "PartialFourier": 1,
    "PatientPosition": "HFS",
    "PercentPhaseFOV": 100,
    "PercentSampling": 100,
    "PhaseEncodingDirection": "j-",
    "PhaseEncodingSteps": 64,
    "PhaseResolution": 1,
    "PixelBandwidth": 2298,
    "ProcedureStepDescription": "Unknown",
    "ProtocolName": "rtfmri_neurofeedback_LocDynamicExpressions",
    "PulseSequenceDetails": "%SiemensSeq%\\ep2d_bold",
    "ReceiveCoilName": "HeadMatrix",
    "ReconMatrixPE": 64,
    "RepetitionTime": 2,
    "SAR": 0.199459,
    "ScanOptions": "FS",
    "ScanningSequence": "EP",
    "SequenceName": "*epfid2d1_64",
    "SequenceVariant": "SK",
    "SeriesDescription": "rtfmri_neurofeedback_LocDynamicExpressions",
    "SeriesNumber": 4,
    "ShimSetting": [
      15819,
      7513,
      21280,
      721,
      353,
      -56,
      -315,
      62
    ],
    "SliceThickness": 3,
    "SliceTiming": [
      0,
      1.0325,
      0.06,
      1.095,
      0.12,
      1.155,
      0.1825,
      1.215,
      0.2425,
      1.2775,
      0.3025,
      1.3375,
      0.365,
      1.3975,
      0.425,
      1.46,
      0.485,
      1.52,
      0.5475,
      1.58,
      0.6075,
      1.6425,
      0.6675,
      1.7025,
      0.73,
      1.7625,
      0.79,
      1.825,
      0.85,
      1.885,
      0.9125,
      1.945,
      0.9725
    ],
    "SoftwareVersions": "syngo MR B17",
    "SpacingBetweenSlices": 3,
    "StationName": "MRC35377",
    "TaskName": "faceexplocalizer",
    "TotalReadoutTime": 0.0315,
    "TxRefAmp": 372.554,
    "dataset": "ds004141",
    "dcmmeta_affine": [
      [
        -3.9995064735412598,
        -0.06282909959554672,
        -0.0008402488310821354,
        126.8336410522461
      ],
      [
        -0.06283849477767944,
        3.9985222816467285,
        0.06653978675603867,
        -84.45050811767578
      ],
      [
        0.0002736271417234093,
        -0.08872637152671814,
        2.9992618560791016,
        -59.50779342651367
      ],
      [
        0.0,
        0.0,
        0.0,
        1.0
      ]
    ],
    "dcmmeta_reorient_transform": [
      [
        0.0,
        -1.0,
        0.0,
        63.0
      ],
      [
        1.0,
        0.0,
        0.0,
        0.0
      ],
      [
        0.0,
        0.0,
        1.0,
        0.0
      ],
      [
        0.0,
        0.0,
        0.0,
        1.0
      ]
    ],
    "dcmmeta_shape": [
      64,
      64,
      33,
      160
    ],
    "dcmmeta_slice_dim": 2,
    "dcmmeta_version": 0.6,
    "global": {
      "const": {
        "AccessionNumber": "MJP20150429-0471",
        "AcquisitionMatrix": [
          64,
          0,
          0,
          64
        ],
        "Allergies": "MEDALERGIESL",
        "AngioFlag": "N",
        "BitsAllocated": 16,
        "BitsStored": 12,
        "Columns": 384,
        "EchoNumbers": 1,
        "EchoTime": 30.0,
        "EchoTrainLength": 1,
        "FlipAngle": 90.0,
        "HighBit": 11,
        "ImageOrientationPatient": [
          0.99987659391069,
          0.01570962348594,
          6.840678421e-05,
          -0.0157072754831,
          0.99963056099282,
          0.02218159205474
        ],
        "ImagePositionPatient": [
          -752.74376852035,
          -817.27410912231,
          -79.337552788735
        ],
        "ImageType": [
          "ORIGINAL",
          "PRIMARY",
          "M",
          "ND",
          "MOSAIC"
        ],
        "ImagedNucleus": "1H",
        "ImagingFrequency": 123.255608,
        "InPlanePhaseEncodingDirection": "COL",
        "MRAcquisitionType": "2D",
        "MagneticFieldStrength": 3.0,
        "Manufacturer": "SIEMENS",
        "ManufacturerModelName": "TrioTim",
        "MedicalAlerts": "MEDALERTS",
        "Modality": "MR",
        "NumberOfAverages": 1.0,
        "NumberOfPhaseEncodingSteps": 64,
        "PercentPhaseFieldOfView": 100.0,
        "PercentSampling": 100.0,
        "PerformedProcedureStepStartTime": "140257.187000",
        "PhotometricInterpretation": "MONOCHROME2",
        "PixelBandwidth": 2298.0,
        "PixelRepresentation": 0,
        "PixelSpacing": [
          4.0,
          4.0
        ],
        "ProtocolName": "rtfmri_neurofeedback_LocDynamicExpressions",
        "RepetitionTime": 2000.0,
        "RequestAttributesSequence": [
          {
            "RequestedProcedureID": "adb4ca85-d564-49",
            "ScheduledProcedureStepDescription": "Unknown",
            "ScheduledProcedureStepID": "adb4ca85-d564-49"
          }
        ],
        "Rows": 384,
        "SAR": 0.19945906307311,
        "SamplesPerPixel": 1,
        "ScanOptions": "FS",
        "ScanningSequence": "EP",
        "SequenceName": "*epfid2d1_64",
        "SequenceVariant": "SK",
        "SeriesDescription": "rtfmri_neurofeedback_LocDynamicExpressions",
        "SeriesNumber": 4,
        "SeriesTime": "141554.234000",
        "SliceLocation": -61.401781070008,
        "SliceThickness": 3.0,
        "SmallestImagePixelValue": 0,
        "SoftwareVersions": "syngo MR B17",
        "SpacingBetweenSlices": 2.9999999905782,
        "SpecificCharacterSet": "ISO_IR 100",
        "StudyID": "adb4ca85-d564-49",
        "StudyTime": "140257.125000",
        "TransmitCoilName": "Body",
        "VariableFlipAngleFlag": "N",
        "WindowCenterWidthExplanation": "Algo1",
        "dBdt": 0.0
      },
      "slices": {}
    },
    "modality": "bold",
    "run_id": 1,
    "session_id": "01",
    "subject_id": "07",
    "task_id": "faceexplocalizer",
    "time": {
      "samples": {
        "AcquisitionNumber": [
          1,
          2,
          3,
          4,
          5,
          6,
          7,
          8,
          9,
          10,
          11,
          12,
          13,
          14,
          15,
          16,
          17,
          18,
          19,
          20,
          21,
          22,
          23,
          24,
          25,
          26,
          27,
          28,
          29,
          30,
          31,
          32,
          33,
          34,
          35,
          36,
          37,
          38,
          39,
          40,
          41,
          42,
          43,
          44,
          45,
          46,
          47,
          48,
          49,
          50,
          51,
          52,
          53,
          54,
          55,
          56,
          57,
          58,
          59,
          60,
          61,
          62,
          63,
          64,
          65,
          66,
          67,
          68,
          69,
          70,
          71,
          72,
          73,
          74,
          75,
          76,
          77,
          78,
          79,
          80,
          81,
          82,
          83,
          84,
          85,
          86,
          87,
          88,
          89,
          90,
          91,
          92,
          93,
          94,
          95,
          96,
          97,
          98,
          99,
          100,
          101,
          102,
          103,
          104,
          105,
          106,
          107,
          108,
          109,
          110,
          111,
          112,
          113,
          114,
          115,
          116,
          117,
          118,
          119,
          120,
          121,
          122,
          123,
          124,
          125,
          126,
          127,
          128,
          129,
          130,
          131,
          132,
          133,
          134,
          135,
          136,
          137,
          138,
          139,
          140,
          141,
          142,
          143,
          144,
          145,
          146,
          147,
          148,
          149,
          150,
          151,
          152,
          153,
          154,
          155,
          156,
          157,
          158,
          159,
          160
        ],
        "AcquisitionTime": [
          "141550.760000",
          "141552.767500",
          "141554.775000",
          "141556.782500",
          "141558.790000",
          "141600.800000",
          "141602.807500",
          "141604.815000",
          "141606.822500",
          "141608.830000",
          "141610.840000",
          "141612.847500",
          "141614.855000",
          "141616.862500",
          "141618.872500",
          "141620.880000",
          "141622.887500",
          "141624.895000",
          "141626.902500",
          "141628.912500",
          "141630.920000",
          "141632.927500",
          "141634.935000",
          "141636.942500",
          "141638.952500",
          "141640.960000",
          "141642.967500",
          "141644.975000",
          "141646.982500",
          "141648.992500",
          "141651.000000",
          "141653.007500",
          "141655.015000",
          "141657.025000",
          "141659.032500",
          "141701.040000",
          "141703.047500",
          "141705.055000",
          "141707.065000",
          "141709.072500",
          "141711.080000",
          "141713.087500",
          "141715.095000",
          "141717.105000",
          "141719.112500",
          "141721.120000",
          "141723.127500",
          "141725.137500",
          "141727.145000",
          "141729.152500",
          "141731.160000",
          "141733.167500",
          "141735.177500",
          "141737.185000",
          "141739.192500",
          "141741.200000",
          "141743.207500",
          "141745.217500",
          "141747.225000",
          "141749.232500",
          "141751.240000",
          "141753.250000",
          "141755.257500",
          "141757.265000",
          "141759.272500",
          "141801.280000",
          "141803.290000",
          "141805.297500",
          "141807.305000",
          "141809.312500",
          "141811.320000",
          "141813.330000",
          "141815.337500",
          "141817.345000",
          "141819.352500",
          "141821.360000",
          "141823.370000",
          "141825.377500",
          "141827.385000",
          "141829.392500",
          "141831.402500",
          "141833.410000",
          "141835.417500",
          "141837.425000",
          "141839.432500",
          "141841.442500",
          "141843.450000",
          "141845.457500",
          "141847.465000",
          "141849.472500",
          "141851.482500",
          "141853.490000",
          "141855.497500",
          "141857.505000",
          "141859.515000",
          "141901.522500",
          "141903.530000",
          "141905.537500",
          "141907.545000",
          "141909.555000",
          "141911.562500",
          "141913.570000",
          "141915.577500",
          "141917.585000",
          "141919.595000",
          "141921.602500",
          "141923.610000",
          "141925.617500",
          "141927.627500",
          "141929.635000",
          "141931.642500",
          "141933.650000",
          "141935.657500",
          "141937.667500",
          "141939.675000",
          "141941.682500",
          "141943.690000",
          "141945.697500",
          "141947.707500",
          "141949.715000",
          "141951.722500",
          "141953.730000",
          "141955.740000",
          "141957.747500",
          "141959.755000",
          "142001.762500",
          "142003.770000",
          "142005.780000",
          "142007.787500",
          "142009.795000",
          "142011.802500",
          "142013.810000",
          "142015.820000",
          "142017.827500",
          "142019.835000",
          "142021.842500",
          "142023.850000",
          "142025.860000",
          "142027.867500",
          "142029.875000",
          "142031.882500",
          "142033.892500",
          "142035.900000",
          "142037.907500",
          "142039.915000",
          "142041.922500",
          "142043.932500",
          "142045.940000",
          "142047.947500",
          "142049.955000",
          "142051.962500",
          "142053.972500",
          "142055.980000",
          "142057.987500",
          "142059.995000",
          "142102.005000",
          "142104.012500",
          "142106.020000",
          "142108.027500",
          "142110.035000"
        ],
        "ContentTime": [
          "141554.234000",
          "141556.234000",
          "141558.234000",
          "141600.234000",
          "141602.234000",
          "141604.234000",
          "141606.234000",
          "141608.234000",
          "141610.234000",
          "141612.234000",
          "141614.234000",
          "141616.234000",
          "141618.234000",
          "141620.234000",
          "141622.234000",
          "141624.234000",
          "141626.234000",
          "141628.234000",
          "141630.234000",
          "141632.234000",
          "141634.234000",
          "141636.234000",
          "141638.234000",
          "141640.234000",
          "141642.234000",
          "141644.234000",
          "141646.234000",
          "141648.234000",
          "141650.234000",
          "141652.234000",
          "141654.234000",
          "141656.234000",
          "141658.234000",
          "141700.234000",
          "141702.234000",
          "141704.234000",
          "141706.234000",
          "141708.234000",
          "141710.234000",
          "141712.234000",
          "141714.234000",
          "141716.234000",
          "141718.234000",
          "141720.234000",
          "141722.234000",
          "141724.234000",
          "141726.234000",
          "141728.234000",
          "141730.234000",
          "141732.234000",
          "141734.234000",
          "141736.234000",
          "141738.234000",
          "141740.234000",
          "141742.234000",
          "141744.234000",
          "141746.234000",
          "141748.234000",
          "141750.234000",
          "141752.234000",
          "141754.234000",
          "141756.234000",
          "141758.234000",
          "141800.234000",
          "141802.234000",
          "141804.234000",
          "141806.234000",
          "141808.234000",
          "141810.234000",
          "141812.234000",
          "141814.234000",
          "141816.234000",
          "141818.234000",
          "141820.234000",
          "141822.234000",
          "141824.234000",
          "141826.234000",
          "141828.234000",
          "141830.234000",
          "141832.234000",
          "141834.234000",
          "141836.234000",
          "141838.234000",
          "141840.234000",
          "141842.234000",
          "141844.234000",
          "141846.234000",
          "141848.234000",
          "141850.234000",
          "141852.234000",
          "141854.234000",
          "141856.234000",
          "141858.234000",
          "141900.234000",
          "141902.234000",
          "141904.234000",
          "141906.234000",
          "141908.234000",
          "141910.234000",
          "141912.234000",
          "141914.234000",
          "141916.234000",
          "141918.234000",
          "141920.234000",
          "141922.234000",
          "141924.234000",
          "141926.234000",
          "141928.234000",
          "141930.234000",
          "141932.234000",
          "141934.234000",
          "141936.234000",
          "141938.234000",
          "141940.234000",
          "141942.234000",
          "141944.234000",
          "141946.234000",
          "141948.234000",
          "141950.234000",
          "141952.234000",
          "141954.234000",
          "141956.234000",
          "141958.234000",
          "142000.234000",
          "142002.234000",
          "142004.234000",
          "142006.234000",
          "142008.234000",
          "142010.234000",
          "142012.234000",
          "142014.234000",
          "142016.234000",
          "142018.234000",
          "142020.234000",
          "142022.234000",
          "142024.234000",
          "142026.234000",
          "142028.234000",
          "142030.234000",
          "142032.234000",
          "142034.234000",
          "142036.234000",
          "142038.234000",
          "142040.234000",
          "142042.234000",
          "142044.234000",
          "142046.234000",
          "142048.234000",
          "142050.234000",
          "142052.234000",
          "142054.234000",
          "142056.234000",
          "142058.234000",
          "142100.234000",
          "142102.234000",
          "142104.234000",
          "142106.234000",
          "142108.234000",
          "142110.234000",
          "142111.828000"
        ],
        "InstanceCreationTime": [
          "141554.234000",
          "141556.234000",
          "141558.234000",
          "141600.234000",
          "141602.234000",
          "141604.234000",
          "141606.234000",
          "141608.234000",
          "141610.234000",
          "141612.234000",
          "141614.234000",
          "141616.234000",
          "141618.234000",
          "141620.234000",
          "141622.234000",
          "141624.234000",
          "141626.234000",
          "141628.234000",
          "141630.234000",
          "141632.234000",
          "141634.234000",
          "141636.234000",
          "141638.234000",
          "141640.234000",
          "141642.234000",
          "141644.234000",
          "141646.234000",
          "141648.234000",
          "141650.234000",
          "141652.234000",
          "141654.234000",
          "141656.234000",
          "141658.234000",
          "141700.234000",
          "141702.234000",
          "141704.234000",
          "141706.234000",
          "141708.234000",
          "141710.234000",
          "141712.234000",
          "141714.234000",
          "141716.234000",
          "141718.234000",
          "141720.234000",
          "141722.234000",
          "141724.234000",
          "141726.234000",
          "141728.234000",
          "141730.234000",
          "141732.234000",
          "141734.234000",
          "141736.234000",
          "141738.234000",
          "141740.234000",
          "141742.234000",
          "141744.234000",
          "141746.234000",
          "141748.234000",
          "141750.234000",
          "141752.234000",
          "141754.234000",
          "141756.234000",
          "141758.234000",
          "141800.234000",
          "141802.234000",
          "141804.234000",
          "141806.234000",
          "141808.234000",
          "141810.234000",
          "141812.234000",
          "141814.234000",
          "141816.234000",
          "141818.234000",
          "141820.234000",
          "141822.234000",
          "141824.234000",
          "141826.234000",
          "141828.234000",
          "141830.234000",
          "141832.234000",
          "141834.234000",
          "141836.234000",
          "141838.234000",
          "141840.234000",
          "141842.234000",
          "141844.234000",
          "141846.234000",
          "141848.234000",
          "141850.234000",
          "141852.234000",
          "141854.234000",
          "141856.234000",
          "141858.234000",
          "141900.234000",
          "141902.234000",
          "141904.234000",
          "141906.234000",
          "141908.234000",
          "141910.234000",
          "141912.234000",
          "141914.234000",
          "141916.234000",
          "141918.234000",
          "141920.234000",
          "141922.234000",
          "141924.234000",
          "141926.234000",
          "141928.234000",
          "141930.234000",
          "141932.234000",
          "141934.234000",
          "141936.234000",
          "141938.234000",
          "141940.234000",
          "141942.234000",
          "141944.234000",
          "141946.234000",
          "141948.234000",
          "141950.234000",
          "141952.234000",
          "141954.234000",
          "141956.234000",
          "141958.234000",
          "142000.234000",
          "142002.234000",
          "142004.234000",
          "142006.234000",
          "142008.234000",
          "142010.234000",
          "142012.234000",
          "142014.234000",
          "142016.234000",
          "142018.234000",
          "142020.234000",
          "142022.234000",
          "142024.234000",
          "142026.234000",
          "142028.234000",
          "142030.234000",
          "142032.234000",
          "142034.234000",
          "142036.234000",
          "142038.234000",
          "142040.234000",
          "142042.234000",
          "142044.234000",
          "142046.234000",
          "142048.234000",
          "142050.234000",
          "142052.234000",
          "142054.234000",
          "142056.234000",
          "142058.234000",
          "142100.234000",
          "142102.234000",
          "142104.234000",
          "142106.234000",
          "142108.234000",
          "142110.234000",
          "142111.828000"
        ],
        "InstanceNumber": [
          1,
          2,
          3,
          4,
          5,
          6,
          7,
          8,
          9,
          10,
          11,
          12,
          13,
          14,
          15,
          16,
          17,
          18,
          19,
          20,
          21,
          22,
          23,
          24,
          25,
          26,
          27,
          28,
          29,
          30,
          31,
          32,
          33,
          34,
          35,
          36,
          37,
          38,
          39,
          40,
          41,
          42,
          43,
          44,
          45,
          46,
          47,
          48,
          49,
          50,
          51,
          52,
          53,
          54,
          55,
          56,
          57,
          58,
          59,
          60,
          61,
          62,
          63,
          64,
          65,
          66,
          67,
          68,
          69,
          70,
          71,
          72,
          73,
          74,
          75,
          76,
          77,
          78,
          79,
          80,
          81,
          82,
          83,
          84,
          85,
          86,
          87,
          88,
          89,
          90,
          91,
          92,
          93,
          94,
          95,
          96,
          97,
          98,
          99,
          100,
          101,
          102,
          103,
          104,
          105,
          106,
          107,
          108,
          109,
          110,
          111,
          112,
          113,
          114,
          115,
          116,
          117,
          118,
          119,
          120,
          121,
          122,
          123,
          124,
          125,
          126,
          127,
          128,
          129,
          130,
          131,
          132,
          133,
          134,
          135,
          136,
          137,
          138,
          139,
          140,
          141,
          142,
          143,
          144,
          145,
          146,
          147,
          148,
          149,
          150,
          151,
          152,
          153,
          154,
          155,
          156,
          157,
          158,
          159,
          160
        ],
        "LargestImagePixelValue": [
          1380,
          1363,
          1361,
          1375,
          1357,
          1358,
          1348,
          1342,
          1358,
          1360,
          1346,
          1361,
          1354,
          1357,
          1360,
          1366,
          1365,
          1346,
          1355,
          1361,
          1355,
          1355,
          1358,
          1352,
          1354,
          1350,
          1347,
          1361,
          1356,
          1343,
          1344,
          1348,
          1356,
          1348,
          1353,
          1342,
          1335,
          1347,
          1336,
          1336,
          1342,
          1338,
          1355,
          1339,
          1343,
          1353,
          1341,
          1337,
          1336,
          1333,
          1340,
          1348,
          1341,
          1352,
          1346,
          1335,
          1356,
          1351,
          1339,
          1346,
          1341,
          1344,
          1355,
          1343,
          1348,
          1369,
          1343,
          1356,
          1350,
          1344,
          1345,
          1342,
          1334,
          1351,
          1358,
          1351,
          1363,
          1360,
          1362,
          1368,
          1345,
          1349,
          1333,
          1351,
          1356,
          1335,
          1345,
          1343,
          1343,
          1350,
          1350,
          1353,
          1353,
          1357,
          1361,
          1358,
          1337,
          1353,
          1338,
          1384,
          1341,
          1337,
          1349,
          1345,
          1346,
          1349,
          1349,
          1355,
          1347,
          1337,
          1339,
          1352,
          1348,
          1347,
          1346,
          1341,
          1364,
          1344,
          1341,
          1345,
          1355,
          1358,
          1348,
          1349,
          1348,
          1355,
          1356,
          1354,
          1358,
          1363,
          1349,
          1341,
          1351,
          1352,
          1355,
          1354,
          1357,
          1361,
          1350,
          1353,
          1351,
          1332,
          1346,
          1350,
          1338,
          1360,
          1353,
          1352,
          1352,
          1341,
          1340,
          1344,
          1339,
          1344,
          1363,
          1351,
          1340,
          1341,
          1345,
          1342
        ],
        "WindowCenter": [
          636.0,
          635.0,
          636.0,
          636.0,
          635.0,
          634.0,
          633.0,
          633.0,
          634.0,
          634.0,
          633.0,
          633.0,
          633.0,
          633.0,
          633.0,
          633.0,
          634.0,
          633.0,
          635.0,
          635.0,
          634.0,
          634.0,
          633.0,
          633.0,
          633.0,
          633.0,
          633.0,
          633.0,
          634.0,
          633.0,
          633.0,
          634.0,
          635.0,
          634.0,
          633.0,
          633.0,
          633.0,
          633.0,
          633.0,
          632.0,
          633.0,
          633.0,
          633.0,
          633.0,
          633.0,
          634.0,
          633.0,
          633.0,
          633.0,
          632.0,
          633.0,
          633.0,
          633.0,
          634.0,
          634.0,
          632.0,
          635.0,
          633.0,
          633.0,
          634.0,
          633.0,
          633.0,
          633.0,
          633.0,
          633.0,
          634.0,
          634.0,
          633.0,
          633.0,
          632.0,
          633.0,
          633.0,
          633.0,
          633.0,
          633.0,
          633.0,
          634.0,
          633.0,
          634.0,
          633.0,
          634.0,
          633.0,
          633.0,
          634.0,
          634.0,
          634.0,
          634.0,
          633.0,
          633.0,
          634.0,
          635.0,
          635.0,
          634.0,
          634.0,
          634.0,
          633.0,
          633.0,
          633.0,
          627.0,
          636.0,
          633.0,
          633.0,
          633.0,
          633.0,
          633.0,
          633.0,
          632.0,
          632.0,
          633.0,
          633.0,
          633.0,
          633.0,
          634.0,
          634.0,
          634.0,
          633.0,
          634.0,
          633.0,
          633.0,
          634.0,
          634.0,
          634.0,
          633.0,
          633.0,
          633.0,
          633.0,
          633.0,
          633.0,
          633.0,
          633.0,
          633.0,
          633.0,
          633.0,
          634.0,
          634.0,
          634.0,
          634.0,
          634.0,
          634.0,
          633.0,
          634.0,
          633.0,
          633.0,
          634.0,
          633.0,
          634.0,
          634.0,
          635.0,
          634.0,
          634.0,
          634.0,
          633.0,
          633.0,
          633.0,
          633.0,
          634.0,
          634.0,
          634.0,
          633.0,
          634.0
        ],
        "WindowWidth": [
          1354.0,
