{
  "aor": 0.0008124375,
  "aqi": 0.0056399035625000005,
  "bids_meta": {
    "AcquisitionMatrixPE": 64,
    "AcquisitionNumber": 1,
    "AcquisitionTime": "14:42:20.122500",
    "BandwidthPerPixelPhaseEncode": 31.25,
    "BaseResolution": 64,
    "CoilCombinationMethod": "Sum of Squares",
    "CoilString": "C:HEA;HEP",
    "ConversionSoftware": "dcm2niix",
    "ConversionSoftwareVersion": "v1.0.20211006",
    "DerivedVendorReportedEchoSpacing": 0.0005,
    "DeviceSerialNumber": "35377",
    "DwellTime": 3.4e-06,
    "EchoTime": 0.03,
    "EffectiveEchoSpacing": 0.0005,
    "FlipAngle": 90,
    "ImageOrientationPatientDICOM": [
      0.998256,
      0.0121304,
      0.0577769,
      -0.0156818,
      0.997989,
      0.0614166
    ],
    "ImageOrientationText": "Tra>Cor(3.6)>Sag(3.3)",
    "ImageType": [
      "ORIGINAL",
      "PRIMARY",
      "M",
      "ND",
      "MOSAIC"
    ],
    "ImagingFrequency": 123.256,
    "InPlanePhaseEncodingDirectionDICOM": "COL",
    "InstitutionAddress": "Azinhaga Santa Comba StreetNo,Coimbra,District,PT,3000",
    "InstitutionName": "IBILI",
    "InstitutionalDepartmentName": "Department",
    "MRAcquisitionType": "2D",
    "MagneticFieldStrength": 3,
    "Manufacturer": "Siemens",
    "ManufacturersModelName": "TrioTim",
    "MatrixCoilMode": "SENSE",
    "Modality": "MR",
    "PartialFourier": 1,
    "PatientPosition": "HFS",
    "PercentPhaseFOV": 100,
    "PercentSampling": 100,
    "PhaseEncodingDirection": "j-",
    "PhaseEncodingSteps": 64,
    "PhaseResolution": 1,
    "PixelBandwidth": 2298,
    "ProcedureStepDescription": "Unknown",
    "ProtocolName": "rtfmri_neurofeedback_LocDynamicExpressions",
    "PulseSequenceDetails": "%SiemensSeq%\\ep2d_bold",
    "ReceiveCoilName": "HeadMatrix",
    "ReconMatrixPE": 64,
    "RepetitionTime": 2,
    "SAR": 0.139891,
    "ScanOptions": "FS",
    "ScanningSequence": "EP",
    "SequenceName": "*epfid2d1_64",
    "SequenceVariant": "SK",
    "SeriesDescription": "rtfmri_neurofeedback_LocDynamicExpressions",
    "SeriesNumber": 4,
    "ShimSetting": [
      15858,
      7507,
      21367,
      546,
      196,
      -642,
      137,
      -15
    ],
    "SliceThickness": 3,
    "SliceTiming": [
      0,
      1.035,
      0.0625,
      1.095,
      0.1225,
      1.1575,
      0.1825,
      1.2175,
      0.245,
      1.2775,
      0.305,
      1.34,
      0.365,
      1.4,
      0.4275,
      1.46,
      0.4875,
      1.5225,
      0.5475,
      1.5825,
      0.61,
      1.6425,
      0.67,
      1.705,
      0.73,
      1.765,
      0.7925,
      1.825,
      0.8525,
      1.8875,
      0.9125,
      1.9475,
      0.975
    ],
    "SoftwareVersions": "syngo MR B17",
    "SpacingBetweenSlices": 3,
    "StationName": "MRC35377",
    "TaskName": "faceexplocalizer",
    "TotalReadoutTime": 0.0315,
    "TxRefAmp": 362.122,
    "dataset": "ds004141",
    "dcmmeta_affine": [
      [
        -3.99302339553833,
        -0.0627271980047226,
        0.17074698209762573,
        129.06112670898438
      ],
      [
        -0.04852154478430748,
        3.9919559955596924,
        0.1866464465856552,
        -86.40364074707031
      ],
      [
        0.2311074137687683,
        -0.2456662356853485,
        2.9893157482147217,
        -47.855594635009766
      ],
      [
        0.0,
        0.0,
        0.0,
        1.0
      ]
    ],
    "dcmmeta_reorient_transform": [
      [
        0.0,
        -1.0,
        0.0,
        63.0
      ],
      [
        1.0,
        0.0,
        0.0,
        0.0
      ],
      [
        0.0,
        0.0,
        1.0,
        0.0
      ],
      [
        0.0,
        0.0,
        0.0,
        1.0
      ]
    ],
    "dcmmeta_shape": [
      64,
      64,
      33,
      160
    ],
    "dcmmeta_slice_dim": 2,
    "dcmmeta_version": 0.6,
    "global": {
      "const": {
        "AccessionNumber": "GMR20150205-0811",
        "AcquisitionMatrix": [
          64,
          0,
          0,
          64
        ],
        "Allergies": "MEDALERGIESL",
        "AngioFlag": "N",
        "BitsAllocated": 16,
        "BitsStored": 12,
        "Columns": 384,
        "EchoNumbers": 1,
        "EchoTime": 30.0,
        "EchoTrainLength": 1,
        "FlipAngle": 90.0,
        "HighBit": 11,
        "ImageOrientationPatient": [
          0.99825582340261,
          0.01213038576505,
          0.05777685335821,
          -0.0156817990985,
          0.9979890217921,
          0.06141655769803
        ],
        "ImagePositionPatient": [
          -753.95669584607,
          -811.56601271263,
          -139.61634916995
        ],
        "ImageType": [
          "ORIGINAL",
          "PRIMARY",
          "M",
          "ND",
          "MOSAIC"
        ],
        "ImagedNucleus": "1H",
        "ImagingFrequency": 123.255592,
        "InPlanePhaseEncodingDirection": "COL",
        "MRAcquisitionType": "2D",
        "MagneticFieldStrength": 3.0,
        "Manufacturer": "SIEMENS",
        "ManufacturerModelName": "TrioTim",
        "MedicalAlerts": "MEDALERTS",
        "Modality": "MR",
        "NumberOfAverages": 1.0,
        "NumberOfPhaseEncodingSteps": 64,
        "PercentPhaseFieldOfView": 100.0,
        "PercentSampling": 100.0,
        "PerformedProcedureStepStartTime": "141836.796000",
        "PhotometricInterpretation": "MONOCHROME2",
        "PixelBandwidth": 2298.0,
        "PixelRepresentation": 0,
        "PixelSpacing": [
          4.0,
          4.0
        ],
        "ProtocolName": "rtfmri_neurofeedback_LocDynamicExpressions",
        "RepetitionTime": 2000.0,
        "RequestAttributesSequence": [
          {
            "RequestedProcedureID": "75341749-af4e-40",
            "ScheduledProcedureStepDescription": "Unknown",
            "ScheduledProcedureStepID": "75341749-af4e-40"
          }
        ],
        "Rows": 384,
        "SAR": 0.13989129699091,
        "SamplesPerPixel": 1,
        "ScanOptions": "FS",
        "ScanningSequence": "EP",
        "SequenceName": "*epfid2d1_64",
        "SequenceVariant": "SK",
        "SeriesDescription": "rtfmri_neurofeedback_LocDynamicExpressions",
        "SeriesNumber": 4,
        "SeriesTime": "144224.375000",
        "SliceLocation": -45.715204341405,
        "SliceThickness": 3.0,
        "SmallestImagePixelValue": 0,
        "SoftwareVersions": "syngo MR B17",
        "SpacingBetweenSlices": 3.0000000118195,
        "SpecificCharacterSet": "ISO_IR 100",
        "StudyID": "75341749-af4e-40",
        "StudyTime": "141836.734000",
        "TransmitCoilName": "Body",
        "VariableFlipAngleFlag": "N",
        "WindowCenterWidthExplanation": "Algo1",
        "dBdt": 0.0
      },
      "slices": {}
    },
    "modality": "bold",
    "run_id": 1,
    "session_id": "01",
    "subject_id": "03",
    "task_id": "faceexplocalizer",
    "time": {
      "samples": {
        "AcquisitionNumber": [
          1,
          2,
          3,
          4,
          5,
          6,
          7,
          8,
          9,
          10,
          11,
          12,
          13,
          14,
          15,
          16,
          17,
          18,
          19,
          20,
          21,
          22,
          23,
          24,
          25,
          26,
          27,
          28,
          29,
          30,
          31,
          32,
          33,
          34,
          35,
          36,
          37,
          38,
          39,
          40,
          41,
          42,
          43,
          44,
          45,
          46,
          47,
          48,
          49,
          50,
          51,
          52,
          53,
          54,
          55,
          56,
          57,
          58,
          59,
          60,
          61,
          62,
          63,
          64,
          65,
          66,
          67,
          68,
          69,
          70,
          71,
          72,
          73,
          74,
          75,
          76,
          77,
          78,
          79,
          80,
          81,
          82,
          83,
          84,
          85,
          86,
          87,
          88,
          89,
          90,
          91,
          92,
          93,
          94,
          95,
          96,
          97,
          98,
          99,
          100,
          101,
          102,
          103,
          104,
          105,
          106,
          107,
          108,
          109,
          110,
          111,
          112,
          113,
          114,
          115,
          116,
          117,
          118,
          119,
          120,
          121,
          122,
          123,
          124,
          125,
          126,
          127,
          128,
          129,
          130,
          131,
          132,
          133,
          134,
          135,
          136,
          137,
          138,
          139,
          140,
          141,
          142,
          143,
          144,
          145,
          146,
          147,
          148,
          149,
          150,
          151,
          152,
          153,
          154,
          155,
          156,
          157,
          158,
          159,
          160
        ],
        "AcquisitionTime": [
          "144220.122500",
          "144222.132500",
          "144224.140000",
          "144226.147500",
          "144228.155000",
          "144230.162500",
          "144232.172500",
          "144234.180000",
          "144236.187500",
          "144238.195000",
          "144240.202500",
          "144242.212500",
          "144244.220000",
          "144246.227500",
          "144248.235000",
          "144250.245000",
          "144252.252500",
          "144254.260000",
          "144256.267500",
          "144258.275000",
          "144300.285000",
          "144302.292500",
          "144304.300000",
          "144306.307500",
          "144308.315000",
          "144310.325000",
          "144312.332500",
          "144314.340000",
          "144316.347500",
          "144318.357500",
          "144320.365000",
          "144322.372500",
          "144324.380000",
          "144326.387500",
          "144328.397500",
          "144330.405000",
          "144332.412500",
          "144334.420000",
          "144336.427500",
          "144338.437500",
          "144340.445000",
          "144342.452500",
          "144344.460000",
          "144346.467500",
          "144348.477500",
          "144350.485000",
          "144352.492500",
          "144354.500000",
          "144356.510000",
          "144358.517500",
          "144400.525000",
          "144402.532500",
          "144404.540000",
          "144406.550000",
          "144408.557500",
          "144410.565000",
          "144412.572500",
          "144414.580000",
          "144416.590000",
          "144418.597500",
          "144420.605000",
          "144422.612500",
          "144424.622500",
          "144426.630000",
          "144428.637500",
          "144430.645000",
          "144432.652500",
          "144434.662500",
          "144436.670000",
          "144438.677500",
          "144440.685000",
          "144442.692500",
          "144444.702500",
          "144446.710000",
          "144448.717500",
          "144450.725000",
          "144452.735000",
          "144454.742500",
          "144456.750000",
          "144458.757500",
          "144500.765000",
          "144502.775000",
          "144504.782500",
          "144506.790000",
          "144508.797500",
          "144510.805000",
          "144512.815000",
          "144514.822500",
          "144516.830000",
          "144518.837500",
          "144520.845000",
          "144522.855000",
          "144524.862500",
          "144526.870000",
          "144528.877500",
          "144530.887500",
          "144532.895000",
          "144534.902500",
          "144536.910000",
          "144538.917500",
          "144540.927500",
          "144542.935000",
          "144544.942500",
          "144546.950000",
          "144548.957500",
          "144550.967500",
          "144552.975000",
          "144554.982500",
          "144556.990000",
          "144559.000000",
          "144601.007500",
          "144603.015000",
          "144605.022500",
          "144607.030000",
          "144609.040000",
          "144611.047500",
          "144613.055000",
          "144615.062500",
          "144617.070000",
          "144619.080000",
          "144621.087500",
          "144623.095000",
          "144625.102500",
          "144627.112500",
          "144629.120000",
          "144631.127500",
          "144633.135000",
          "144635.142500",
          "144637.152500",
          "144639.160000",
          "144641.167500",
          "144643.175000",
          "144645.182500",
          "144647.192500",
          "144649.200000",
          "144651.207500",
          "144653.215000",
          "144655.222500",
          "144657.232500",
          "144659.240000",
          "144701.247500",
          "144703.255000",
          "144705.265000",
          "144707.272500",
          "144709.280000",
          "144711.287500",
          "144713.295000",
          "144715.305000",
          "144717.312500",
          "144719.320000",
          "144721.327500",
          "144723.335000",
          "144725.345000",
          "144727.352500",
          "144729.360000",
          "144731.367500",
          "144733.377500",
          "144735.385000",
          "144737.392500",
          "144739.400000"
        ],
        "ContentTime": [
          "144224.375000",
          "144226.375000",
          "144228.375000",
          "144230.375000",
          "144232.375000",
          "144234.375000",
          "144236.375000",
          "144238.375000",
          "144240.375000",
          "144242.375000",
          "144244.375000",
          "144246.375000",
          "144248.375000",
          "144250.375000",
          "144252.375000",
          "144254.375000",
          "144256.375000",
          "144258.375000",
          "144300.375000",
          "144302.375000",
          "144304.375000",
          "144306.375000",
          "144308.375000",
          "144310.375000",
          "144312.375000",
          "144314.375000",
          "144316.375000",
          "144318.375000",
          "144320.375000",
          "144322.375000",
          "144324.375000",
          "144326.375000",
          "144328.375000",
          "144330.375000",
          "144332.375000",
          "144334.375000",
          "144336.375000",
          "144338.375000",
          "144340.375000",
          "144342.375000",
          "144344.375000",
          "144346.375000",
          "144348.375000",
          "144350.375000",
          "144352.375000",
          "144354.375000",
          "144356.375000",
          "144358.375000",
          "144400.375000",
          "144402.375000",
          "144404.375000",
          "144406.375000",
          "144408.375000",
          "144410.375000",
          "144412.375000",
          "144414.375000",
          "144416.375000",
          "144418.375000",
          "144420.375000",
          "144422.375000",
          "144424.375000",
          "144426.375000",
          "144428.375000",
          "144430.375000",
          "144432.375000",
          "144434.375000",
          "144436.375000",
          "144438.375000",
          "144440.375000",
          "144442.375000",
          "144444.375000",
          "144446.375000",
          "144448.375000",
          "144450.375000",
          "144452.375000",
          "144454.375000",
          "144456.375000",
          "144458.375000",
          "144500.375000",
          "144502.375000",
          "144504.375000",
          "144506.375000",
          "144508.375000",
          "144510.375000",
          "144512.375000",
          "144514.375000",
          "144516.375000",
          "144518.375000",
          "144520.375000",
          "144522.375000",
          "144524.375000",
          "144526.375000",
          "144528.375000",
          "144530.375000",
          "144532.375000",
          "144534.375000",
          "144536.375000",
          "144538.375000",
          "144540.375000",
          "144542.375000",
          "144544.375000",
          "144546.375000",
          "144548.375000",
          "144550.375000",
          "144552.375000",
          "144554.375000",
          "144556.375000",
          "144558.375000",
          "144600.375000",
          "144602.375000",
          "144604.375000",
          "144606.375000",
          "144608.375000",
          "144610.375000",
          "144612.375000",
          "144614.375000",
          "144616.375000",
          "144618.375000",
          "144620.375000",
          "144622.375000",
          "144624.375000",
          "144626.375000",
          "144628.375000",
          "144630.375000",
          "144632.375000",
          "144634.375000",
          "144636.375000",
          "144638.375000",
          "144640.375000",
          "144642.375000",
          "144644.375000",
          "144646.375000",
          "144648.375000",
          "144650.375000",
          "144652.375000",
          "144654.375000",
          "144656.375000",
          "144658.375000",
          "144700.375000",
          "144702.375000",
          "144704.375000",
          "144706.375000",
          "144708.375000",
          "144710.375000",
          "144712.375000",
          "144714.375000",
          "144716.375000",
          "144718.375000",
          "144720.375000",
          "144722.375000",
          "144724.375000",
          "144726.375000",
          "144728.375000",
          "144730.375000",
          "144732.375000",
          "144734.375000",
          "144736.375000",
          "144738.375000",
          "144740.375000",
          "144741.890000"
        ],
        "InstanceCreationTime": [
          "144224.375000",
          "144226.375000",
          "144228.375000",
          "144230.375000",
          "144232.375000",
          "144234.375000",
          "144236.375000",
          "144238.375000",
          "144240.375000",
          "144242.375000",
          "144244.375000",
          "144246.375000",
          "144248.375000",
          "144250.375000",
          "144252.375000",
          "144254.375000",
          "144256.375000",
          "144258.375000",
          "144300.375000",
          "144302.375000",
          "144304.375000",
          "144306.375000",
          "144308.375000",
          "144310.375000",
          "144312.375000",
          "144314.375000",
          "144316.375000",
          "144318.375000",
          "144320.375000",
          "144322.375000",
          "144324.375000",
          "144326.375000",
          "144328.375000",
          "144330.375000",
          "144332.375000",
          "144334.375000",
          "144336.375000",
          "144338.375000",
          "144340.375000",
          "144342.375000",
          "144344.375000",
          "144346.375000",
          "144348.375000",
          "144350.375000",
          "144352.375000",
          "144354.375000",
          "144356.375000",
          "144358.375000",
          "144400.375000",
          "144402.375000",
          "144404.375000",
          "144406.375000",
          "144408.375000",
          "144410.375000",
          "144412.375000",
          "144414.375000",
          "144416.375000",
          "144418.375000",
          "144420.375000",
          "144422.375000",
          "144424.375000",
          "144426.375000",
          "144428.375000",
          "144430.375000",
          "144432.375000",
          "144434.375000",
          "144436.375000",
          "144438.375000",
          "144440.375000",
          "144442.375000",
          "144444.375000",
          "144446.375000",
          "144448.375000",
          "144450.375000",
          "144452.375000",
          "144454.375000",
          "144456.375000",
          "144458.375000",
          "144500.375000",
          "144502.375000",
          "144504.375000",
          "144506.375000",
          "144508.375000",
          "144510.375000",
          "144512.375000",
          "144514.375000",
          "144516.375000",
          "144518.375000",
          "144520.375000",
          "144522.375000",
          "144524.375000",
          "144526.375000",
          "144528.375000",
          "144530.375000",
          "144532.375000",
          "144534.375000",
          "144536.375000",
          "144538.375000",
          "144540.375000",
          "144542.375000",
          "144544.375000",
          "144546.375000",
          "144548.375000",
          "144550.375000",
          "144552.375000",
          "144554.375000",
          "144556.375000",
          "144558.375000",
          "144600.375000",
          "144602.375000",
          "144604.375000",
          "144606.375000",
          "144608.375000",
          "144610.375000",
          "144612.375000",
          "144614.375000",
          "144616.375000",
          "144618.375000",
          "144620.375000",
          "144622.375000",
          "144624.375000",
          "144626.375000",
          "144628.375000",
          "144630.375000",
          "144632.375000",
          "144634.375000",
          "144636.375000",
          "144638.375000",
          "144640.375000",
          "144642.375000",
          "144644.375000",
          "144646.375000",
          "144648.375000",
          "144650.375000",
          "144652.375000",
          "144654.375000",
          "144656.375000",
          "144658.375000",
          "144700.375000",
          "144702.375000",
          "144704.375000",
          "144706.375000",
          "144708.375000",
          "144710.375000",
          "144712.375000",
          "144714.375000",
          "144716.375000",
          "144718.375000",
          "144720.375000",
          "144722.375000",
          "144724.375000",
          "144726.375000",
          "144728.375000",
          "144730.375000",
          "144732.375000",
          "144734.375000",
          "144736.375000",
          "144738.375000",
          "144740.375000",
          "144741.890000"
        ],
        "InstanceNumber": [
          1,
          2,
          3,
          4,
          5,
          6,
          7,
          8,
          9,
          10,
          11,
          12,
          13,
          14,
          15,
          16,
          17,
          18,
          19,
          20,
          21,
          22,
          23,
          24,
          25,
          26,
          27,
          28,
          29,
          30,
          31,
          32,
          33,
          34,
          35,
          36,
          37,
          38,
          39,
          40,
          41,
          42,
          43,
          44,
          45,
          46,
          47,
          48,
          49,
          50,
          51,
          52,
          53,
          54,
          55,
          56,
          57,
          58,
          59,
          60,
          61,
          62,
          63,
          64,
          65,
          66,
          67,
          68,
          69,
          70,
          71,
          72,
          73,
          74,
          75,
          76,
          77,
          78,
          79,
          80,
          81,
          82,
          83,
          84,
          85,
          86,
          87,
          88,
          89,
          90,
          91,
          92,
          93,
          94,
          95,
          96,
          97,
          98,
          99,
          100,
          101,
          102,
          103,
          104,
          105,
          106,
          107,
          108,
          109,
          110,
          111,
          112,
          113,
          114,
          115,
          116,
          117,
          118,
          119,
          120,
          121,
          122,
          123,
          124,
          125,
          126,
          127,
          128,
          129,
          130,
          131,
          132,
          133,
          134,
          135,
          136,
          137,
          138,
          139,
          140,
          141,
          142,
          143,
          144,
          145,
          146,
          147,
          148,
          149,
          150,
          151,
          152,
          153,
          154,
          155,
          156,
          157,
          158,
          159,
          160
        ],
        "LargestImagePixelValue": [
          1384,
          1385,
          1393,
          1400,
          1385,
          1365,
          1406,
          1397,
          1412,
          1381,
          1404,
          1409,
          1387,
          1414,
          1406,
          1402,
          1403,
          1386,
          1419,
          1442,
          1388,
          1387,
          1405,
          1397,
          1407,
          1380,
          1390,
          1400,
          1390,
          1380,
          1381,
          1413,
          1361,
          1375,
          1411,
          1381,
          1363,
          1392,
          1383,
          1366,
          1392,
          1381,
          1354,
          1374,
          1356,
          1402,
          1371,
          1369,
          1386,
          1389,
          1375,
          1369,
          1350,
          1374,
          1384,
          1400,
          1407,
          1376,
          1364,
          1390,
          1396,
          1399,
          1361,
          1407,
          1388,
          1400,
          1380,
          1389,
          1404,
          1413,
          1380,
          1377,
          1379,
          1362,
          1381,
          1370,
          1388,
          1388,
          1379,
          1396,
          1404,
          1372,
          1391,
          1362,
          1390,
          1368,
          1374,
          1392,
          1370,
          1362,
          1390,
          1384,
          1384,
          1380,
          1388,
          1383,
          1410,
          1360,
          1372,
          1369,
          1363,
          1361,
          1381,
          1378,
          1366,
          1384,
          1384,
          1365,
          1400,
          1387,
          1369,
          1361,
          1380,
          1401,
          1365,
          1359,
          1371,
          1373,
          1349,
          1361,
          1350,
          1373,
          1344,
          1371,
          1369,
          1370,
          1358,
          1368,
          1378,
          1401,
          1364,
          1369,
          1407,
          1371,
          1391,
          1352,
          1395,
          1355,
          1343,
          1391,
          1365,
          1366,
          1383,
          1382,
          1390,
          1375,
          1408,
          1415,
          1382,
          1381,
          1356,
          1378,
          1379,
          1378,
          1397,
          1375,
          1376,
          1411,
          1383,
          1366
        ],
        "WindowCenter": [
          625.0,
          622.0,
          621.0,
          621.0,
          620.0,
          619.0,
          621.0,
          621.0,
          622.0,
          622.0,
          623.0,
          623.0,
          622.0,
          624.0,
          624.0,
          624.0,
          623.0,
          623.0,
          624.0,
          625.0,
          624.0,
          623.0,
          624.0,
          623.0,
          623.0,
          623.0,
          624.0,
          624.0,
          624.0,
          623.0,
          623.0,
          624.0,
          623.0,
          624.0,
          625.0,
          623.0,
          622.0,
          623.0,
          623.0,
          623.0,
          623.0,
          622.0,
          622.0,
          624.0,
          623.0,
          623.0,
          621.0,
          621.0,
          624.0,
          625.0,
          624.0,
          623.0,
          622.0,
          623.0,
          623.0,
          623.0,
          623.0,
          622.0,
          622.0,
          625.0,
          624.0,
          623.0,
          623.0,
          626.0,
          624.0,
          624.0,
          622.0,
          623.0,
          625.0,
          625.0,
          623.0,
          623.0,
          623.0,
          623.0,
          623.0,
          623.0,
          623.0,
          623.0,
          623.0,
          624.0,
          624.0,
          623.0,
          623.0,
          622.0,
          624.0,
          623.0,
          623.0,
          624.0,
          623.0,
          623.0,
          625.0,
          624.0,
          623.0,
          623.0,
          624.0,
          625.0,
          625.0,
          622.0,
          622.0,
          622.0,
          623.0,
          623.0,
          623.0,
          623.0,
          622.0,
          623.0,
          623.0,
          623.0,
          625.0,
          624.0,
          623.0,
          623.0,
          623.0,
          624.0,
          623.0,
          623.0,
          623.0,
          623.0,
          622.0,
          623.0,
          623.0,
          624.0,
          621.0,
          622.0,
          622.0,
          623.0,
          622.0,
          622.0,
          622.0,
          623.0,
          623.0,
          623.0,
          623.0,
          623.0,
          624.0,
          624.0,
          624.0,
          623.0,
          622.0,
          624.0,
          622.0,
          623.0,
          623.0,
          623.0,
          624.0,
          623.0,
          624.0,
          626.0,
          624.0,
          623.0,
          621.0,
          624.0,
          624.0,
          623.0,
          622.0,
          622.0,
          622.0,
          625.0,
          624.0,
          624.0
        ],
        "WindowWidth": [
          1327.0,
          1321.0,
